time (s)	dominant Fap (N)	dominant Fvert (N)	dominant CPap (m)	non-dominant Fap (N)	non-dominant Fvert (N)	non-dominant CPap (m)
0.000000	-3.266407	422.053747	0.212819	2.676980	520.737236	0.208389
0.010000	-3.277949	421.598191	0.212667	2.704447	520.388307	0.208194
0.020000	-3.304301	421.203785	0.212506	2.719008	520.100383	0.208016
0.030000	-3.352165	420.923354	0.212333	2.709807	519.915117	0.207865
0.040000	-3.416294	420.793085	0.212149	2.670399	519.843757	0.207736
0.050000	-3.481943	420.822604	0.211963	2.600399	519.866987	0.207611
0.060000	-3.533736	420.989044	0.211782	2.505338	519.944582	0.207468
0.070000	-3.567103	421.240405	0.211606	2.394062	520.030688	0.207286
0.080000	-3.595639	421.509535	0.211430	2.274512	520.089604	0.207054
0.090000	-3.648537	421.733902	0.211241	2.150148	520.106860	0.206775
0.100000	-3.757324	421.872315	0.211030	2.019364	520.091064	0.206464
0.110000	-3.937926	421.911275	0.210788	1.878681	520.065291	0.206140
0.120000	-4.177957	421.859864	0.210519	1.727997	520.052391	0.205825
0.130000	-4.437260	421.738625	0.210233	1.574435	520.062930	0.205538
0.140000	-4.662819	421.570150	0.209946	1.431668	520.093313	0.205286
0.150000	-4.811180	421.375562	0.209674	1.314250	520.134873	0.205070
0.160000	-4.867016	421.175030	0.209429	1.229861	520.187115	0.204883
0.170000	-4.848102	420.986924	0.209218	1.174305	520.265650	0.204712
0.180000	-4.794256	420.822236	0.209040	1.132852	520.399295	0.204548
0.190000	-4.746616	420.676594	0.208891	1.087925	520.617770	0.204390
0.200000	-4.728675	420.526721	0.208767	1.029204	520.936295	0.204247
0.210000	-4.738574	420.337243	0.208673	0.960573	521.344128	0.204136
0.220000	-4.754893	420.077280	0.208615	0.899889	521.802208	0.204075
0.230000	-4.750585	419.738889	0.208602	0.871361	522.252349	0.204078
0.240000	-4.706505	419.346718	0.208642	0.894289	522.636833	0.204147
0.250000	-4.618406	418.952561	0.208732	0.973805	522.922227	0.204269
0.260000	-4.496505	418.616822	0.208858	1.098089	523.116603	0.204426
0.270000	-4.360757	418.385668	0.209002	1.243000	523.269322	0.204597
0.280000	-4.235525	418.273918	0.209142	1.381266	523.449701	0.204766
0.290000	-4.145181	418.259806	0.209265	1.491476	523.712747	0.204921
0.300000	-4.109943	418.292080	0.209370	1.562985	524.069320	0.205059
0.310000	-4.140964	418.305771	0.209464	1.595684	524.477718	0.205180
0.320000	-4.235350	418.241185	0.209560	1.596331	524.862662	0.205288
0.330000	-4.373804	418.060645	0.209666	1.574296	525.152084	0.205389
0.340000	-4.523831	417.758445	0.209789	1.538714	525.311770	0.205489
0.350000	-4.649001	417.361604	0.209928	1.497242	525.359737	0.205593
0.360000	-4.720909	416.921822	0.210077	1.455513	525.354880	0.205704
0.370000	-4.728096	416.501448	0.210230	1.416580	525.368856	0.205822
0.380000	-4.677409	416.157248	0.210381	1.380681	525.456818	0.205943
0.390000	-4.587775	415.925702	0.210525	1.346245	525.639138	0.206065
0.400000	-4.480702	415.813382	0.210659	1.312484	525.898097	0.206184
0.410000	-4.372989	415.795639	0.210787	1.282640	526.187303	0.206301
0.420000	-4.274609	415.825213	0.210918	1.265896	526.449009	0.206416
0.430000	-4.190689	415.848793	0.211064	1.276079	526.633711	0.206531
0.440000	-4.124146	415.825480	0.211238	1.326692	526.716156	0.206650
0.450000	-4.076205	415.739573	0.211444	1.423791	526.703001	0.206775
0.460000	-4.044718	415.602694	0.211678	1.559793	526.630395	0.206908
0.470000	-4.022647	415.445459	0.211925	1.711662	526.553095	0.207045
0.480000	-3.999222	415.303117	0.212164	1.845721	526.528662	0.207181
0.490000	-3.964044	415.200879	0.212381	1.928850	526.600556	0.207308
0.500000	-3.911655	415.143647	0.212569	1.942767	526.784075	0.207430
0.510000	-3.842981	415.113372	0.212736	1.895807	527.059536	0.207562
0.520000	-3.761918	415.075459	0.212904	1.826328	527.376706	0.207734
0.530000	-3.668851	414.992727	0.213099	1.794471	527.671421	0.207989
0.540000	-3.555736	414.841444	0.213346	1.863726	527.889645	0.208369
0.550000	-3.407025	414.621657	0.213659	2.078705	528.009023	0.208898
0.560000	-3.207309	414.356494	0.214034	2.448013	528.047129	0.209572
0.570000	-2.952138	414.081832	0.214446	2.939504	528.051275	0.210349
0.580000	-2.656106	413.833798	0.214857	3.489874	528.074403	0.211162
0.590000	-2.353444	413.641709	0.215223	4.024243	528.149664	0.211931
0.600000	-2.090307	413.528087	0.215513	4.477293	528.277075	0.212591
0.610000	-1.911955	413.510760	0.215713	4.807964	528.428161	0.213106
0.620000	-1.849769	413.600681	0.215836	5.003761	528.563527	0.213476
0.630000	-1.912176	413.794171	0.215911	5.075868	528.651672	0.213728
0.640000	-2.081694	414.064850	0.215968	5.049498	528.679069	0.213898
0.650000	-2.318865	414.362864	0.216030	4.954139	528.648980	0.214016
0.660000	-2.572724	414.625201	0.216099	4.816446	528.573388	0.214092
0.670000	-2.795643	414.793978	0.216164	4.656387	528.464651	0.214122
0.680000	-2.957786	414.834729	0.216206	4.486287	528.331455	0.214094
0.690000	-3.055031	414.746585	0.216213	4.312449	528.179886	0.214005
0.700000	-3.106043	414.560553	0.216182	4.139105	528.017163	0.213868
0.710000	-3.139384	414.327882	0.216130	3.973565	527.853829	0.213717
0.720000	-3.177250	414.104510	0.216081	3.830029	527.701030	0.213597
0.730000	-3.224694	413.937891	0.216061	3.729184	527.563234	0.213552
0.740000	-3.270051	413.859549	0.216088	3.692413	527.431611	0.213609
0.750000	-3.295318	413.882946	0.216168	3.732738	527.285366	0.213765
0.760000	-3.289247	414.004317	0.216293	3.847199	527.104234	0.213996
0.770000	-3.254833	414.204900	0.216446	4.015212	526.886617	0.214258
0.780000	-3.207340	414.454779	0.216602	4.204286	526.661074	0.214508
0.790000	-3.165465	414.719088	0.216736	4.380312	526.480687	0.214715
0.800000	-3.141982	414.965747	0.216830	4.517333	526.400017	0.214861
0.810000	-3.139249	415.172090	0.216876	4.602577	526.445619	0.214945
0.820000	-3.150809	415.327633	0.216878	4.635750	526.595610	0.214972
0.830000	-3.166509	415.432277	0.216849	4.624576	526.779297	0.214948
0.840000	-3.177616	415.491587	0.216811	4.579642	526.898310	0.214879
0.850000	-3.179903	415.511910	0.216783	4.510770	526.861245	0.214772
0.860000	-3.174711	415.497574	0.216782	4.425658	526.618169	0.214638
0.870000	-3.168400	415.451082	0.216811	4.330509	526.181190	0.214490
0.880000	-3.169998	415.376014	0.216865	4.231699	525.622754	0.214343
0.890000	-3.186696	415.281124	0.216929	4.137163	525.052394	0.214209
0.900000	-3.218390	415.183265	0.216987	4.056188	524.581207	0.214093
0.910000	-3.254443	415.106635	0.217026	3.997082	524.287694	0.213989
0.920000	-3.275982	415.077391	0.217041	3.963643	524.197286	0.213885
0.930000	-3.264106	415.115287	0.217035	3.952429	524.282308	0.213769
0.940000	-3.210154	415.226097	0.217012	3.952658	524.481250	0.213631
0.950000	-3.121899	415.398492	0.216979	3.949079	524.728543	0.213469
0.960000	-3.021408	415.607097	0.216937	3.926503	524.981288	0.213292
0.970000	-2.935363	415.820648	0.216884	3.874015	525.230591	0.213113
0.980000	-2.883379	416.011835	0.216819	3.787533	525.492760	0.212946
0.990000	-2.870944	416.164319	0.216744	3.670531	525.786276	0.212805
1.000000	-2.890327	416.273356	0.216665	3.533381	526.108267	0.212696
1.010000	-2.927791	416.339785	0.216595	3.391597	526.424251	0.212623
1.020000	-2.971888	416.361392	0.216546	3.262871	526.676946	0.212585
1.030000	-3.017792	416.328036	0.216526	3.162958	526.808651	0.212582
1.040000	-3.065829	416.225138	0.216536	3.101423	526.784301	0.212608
1.050000	-3.116308	416.044737	0.216569	3.079034	526.603721	0.212657
1.060000	-3.164930	415.797849	0.216614	3.088322	526.300047	0.212716
1.070000	-3.202366	415.520140	0.216660	3.117302	525.929620	0.212773
1.080000	-3.218636	415.266159	0.216698	3.154559	525.560537	0.212820
1.090000	-3.209607	415.093653	0.216727	3.193215	525.262495	0.212858
1.100000	-3.181321	415.044884	0.216750	3.232090	525.095535	0.212895
1.110000	-3.148947	415.133418	0.216775	3.274030	525.095356	0.212945
1.120000	-3.130321	415.341899	0.216813	3.322787	525.258113	0.213020
1.130000	-3.137258	415.630902	0.216870	3.380355	525.532982	0.213123
1.140000	-3.169091	415.954176	0.216947	3.446181	525.830473	0.213249
1.150000	-3.211592	416.273466	0.217038	3.518595	526.047359	0.213384
1.160000	-3.241625	416.567060	0.217130	3.597486	526.099312	0.213515
1.170000	-3.235294	416.829228	0.217214	3.686336	525.947245	0.213635
1.180000	-3.176326	417.061848	0.217283	3.791706	525.606582	0.213747
1.190000	-3.061967	417.263514	0.217339	3.919539	525.138163	0.213857
1.200000	-2.904848	417.423399	0.217390	4.069696	524.628084	0.213973
1.210000	-2.730359	417.525293	0.217442	4.231809	524.166084	0.214093
1.220000	-2.569933	417.561237	0.217498	4.385520	523.827921	0.214211
1.230000	-2.451970	417.547271	0.217556	4.506079	523.661677	0.214313
1.240000	-2.393438	417.530611	0.217607	4.573196	523.676526	0.214385
1.250000	-2.395678	417.581033	0.217643	4.578849	523.835890	0.214416
1.260000	-2.446579	417.767484	0.217658	4.530020	524.060647	0.214401
1.270000	-2.528260	418.129083	0.217648	4.444956	524.246655	0.214343
1.280000	-2.626307	418.653420	0.217609	4.345038	524.293788	0.214250
1.290000	-2.735346	419.272806	0.217538	4.246574	524.136189	0.214134
1.300000	-2.857567	419.881997	0.217431	4.156651	523.761599	0.214008
1.310000	-2.994875	420.371690	0.217290	4.074752	523.212782	0.213884
1.320000	-3.139543	420.664651	0.217132	3.998547	522.572056	0.213771
1.330000	-3.269854	420.739516	0.216983	3.929964	521.935762	0.213674
1.340000	-3.355067	420.632532	0.216877	3.877542	521.387458	0.213596
1.350000	-3.368767	420.417816	0.216842	3.853348	520.978040	0.213534
1.360000	-3.304125	420.176521	0.216883	3.866030	520.718949	0.213484
1.370000	-3.182260	419.969492	0.216983	3.914054	520.590711	0.213441
1.380000	-3.047816	419.824448	0.217101	3.983271	520.562868	0.213397
1.390000	-2.952671	419.740193	0.217194	4.050584	520.615291	0.213348
1.400000	-2.935394	419.701692	0.217229	4.092151	520.749203	0.213292
1.410000	-3.006369	419.695410	0.217196	4.092223	520.981506	0.213232
1.420000	-3.145239	419.715993	0.217108	4.048526	521.326114	0.213169
1.430000	-3.310721	419.761936	0.216991	3.972041	521.774306	0.213101
1.440000	-3.457257	419.825242	0.216874	3.881628	522.286692	0.213024
1.450000	-3.550977	419.883808	0.216775	3.795975	522.801690	0.212932
1.460000	-3.579205	419.902919	0.216697	3.726059	523.255156	0.212817
1.470000	-3.551146	419.845926	0.216634	3.670951	523.600079	0.212675
1.480000	-3.490790	419.688260	0.216574	3.618586	523.817200	0.212503
1.490000	-3.425596	419.427237	0.216502	3.551455	523.914295	0.212303
1.500000	-3.375820	419.082895	0.216412	3.455291	523.918118	0.212083
1.510000	-3.348607	418.689972	0.216308	3.327316	523.865025	0.211861
1.520000	-3.338429	418.285018	0.216204	3.180375	523.794211	0.211664
1.530000	-3.332183	417.894361	0.216122	3.040738	523.743914	0.211525
1.540000	-3.315462	417.528218	0.216084	2.940226	523.748626	0.211470
1.550000	-3.276967	417.183761	0.216101	2.905993	523.835282	0.211511
1.560000	-3.210089	416.855497	0.216172	2.952274	524.018327	0.211641
1.570000	-3.112649	416.546646	0.216279	3.076942	524.295725	0.211832
1.580000	-2.986457	416.273720	0.216393	3.262928	524.648907	0.212050
1.590000	-2.837671	416.060392	0.216487	3.482572	525.048104	0.212257
1.600000	-2.677841	415.924038	0.216545	3.702787	525.461350	0.212424
1.610000	-2.524563	415.863448	0.216561	3.890152	525.862967	0.212534
1.620000	-2.400365	415.855080	0.216545	4.016107	526.237554	0.212581
1.630000	-2.328769	415.859115	0.216514	4.062225	526.578513	0.212567
1.640000	-2.327717	415.830750	0.216485	4.024584	526.883394	0.212499
1.650000	-2.402307	415.731163	0.216466	3.915574	527.149492	0.212388
1.660000	-2.540137	415.535751	0.216455	3.761798	527.372028	0.212247
1.670000	-2.712309	415.240520	0.216440	3.597894	527.545342	0.212091
1.680000	-2.880933	414.867198	0.216404	3.457558	527.666140	0.211933
1.690000	-3.010903	414.464495	0.216337	3.364336	527.736979	0.211787
1.700000	-3.081361	414.100671	0.216235	3.325301	527.767959	0.211657
1.710000	-3.091989	413.845113	0.216107	3.330127	527.775170	0.211545
1.720000	-3.061228	413.743528	0.215969	3.356200	527.776129	0.211447
1.730000	-3.017049	413.797969	0.215835	3.377895	527.784205	0.211355
1.740000	-2.984494	413.963260	0.215716	3.376205	527.804664	0.211264
1.750000	-2.976000	414.163501	0.215607	3.344641	527.834268	0.211170
1.760000	-2.989247	414.320957	0.215502	3.288997	527.864979	0.211072
1.770000	-3.013104	414.382280	0.215392	3.221657	527.891034	0.210970
1.780000	-3.037480	414.329231	0.215274	3.153955	527.917063	0.210862
1.790000	-3.060686	414.171294	0.215154	3.091032	527.963141	0.210748
1.800000	-3.089717	413.928717	0.215041	3.031869	528.062304	0.210631
1.810000	-3.133657	413.618873	0.214942	2.973723	528.248887	0.210517
1.820000	-3.194738	413.253777	0.214859	2.917318	528.541568	0.210414
1.830000	-3.263040	412.847189	0.214790	2.868805	528.929484	0.210330
1.840000	-3.318812	412.423530	0.214729	2.836897	529.369635	0.210270
1.850000	-3.342159	412.021224	0.214669	2.827068	529.798627	0.210228
1.860000	-3.325512	411.687663	0.214607	2.836812	530.154613	0.210195
1.870000	-3.281926	411.467224	0.214540	2.855292	530.399739	0.210159
1.880000	-3.243490	411.386271	0.214461	2.867841	530.532188	0.210113
1.890000	-3.249005	411.440735	0.214359	2.862708	530.581091	0.210055
1.900000	-3.326020	411.592805	0.214218	2.836254	530.586258	0.209988
1.910000	-3.475873	411.781300	0.214029	2.794049	530.573650	0.209913
1.920000	-3.669289	411.944064	0.213797	2.747762	530.540835	0.209829
1.930000	-3.855344	412.042862	0.213543	2.709678	530.461106	0.209732
1.940000	-3.980581	412.077699	0.213304	2.687403	530.303111	0.209620
1.950000	-4.010554	412.082467	0.213121	2.680819	530.052810	0.209497
1.960000	-3.944507	412.104953	0.213023	2.682439	529.723389	0.209379
1.970000	-3.816165	412.183743	0.213017	2.681064	529.347461	0.209282
1.980000	-3.679618	412.335213	0.213084	2.667267	528.958311	0.209219
1.990000	-3.586631	412.555359	0.213186	2.638225	528.574133	0.209192
2.000000	-3.566394	412.830736	0.213285	2.599397	528.196112	0.209191
2.010000	-3.617388	413.148411	0.213352	2.562010	527.820499	0.209197
2.020000	-3.714084	413.498845	0.213372	2.537528	527.454503	0.209190
2.030000	-3.822806	413.873226	0.213345	2.532129	527.123503	0.209162
2.040000	-3.916739	414.260916	0.213284	2.544429	526.863565	0.209112
2.050000	-3.982141	414.650609	0.213205	2.567913	526.703562	0.209054
2.060000	-4.014635	415.033611	0.213130	2.596586	526.647952	0.209005
2.070000	-4.011101	415.404757	0.213081	2.630108	526.670489	0.208979
2.080000	-3.964813	415.758524	0.213071	2.674765	526.721948	0.208985
2.090000	-3.868053	416.082921	0.213103	2.739261	526.746586	0.209021
2.100000	-3.720366	416.357322	0.213166	2.827775	526.698191	0.209081
2.110000	-3.536159	416.559029	0.213235	2.934727	526.548948	0.209151
2.120000	-3.345565	416.677362	0.213289	3.044765	526.290214	0.209220
2.130000	-3.186699	416.727439	0.213316	3.138384	525.928728	0.209281
2.140000	-3.092632	416.753664	0.213322	3.200288	525.482301	0.209334
2.150000	-3.079211	416.817508	0.213331	3.226150	524.976840	0.209383
2.160000	-3.139047	416.973144	0.213371	3.224373	524.444204	0.209434
2.170000	-3.243773	417.242384	0.213460	3.212141	523.919536	0.209489
2.180000	-3.353236	417.602159	0.213598	3.207862	523.437061	0.209547
2.190000	-3.428182	417.992043	0.213766	3.223738	523.024412	0.209604
2.200000	-3.442390	418.338977	0.213933	3.261869	522.697007	0.209652
2.210000	-3.390401	418.587324	0.214074	3.315298	522.455055	0.209690
2.220000	-3.287979	418.719853	0.214175	3.372880	522.285188	0.209721
2.230000	-3.164665	418.760671	0.214239	3.425118	522.166225	0.209750
2.240000	-3.051165	418.760957	0.214275	3.467985	522.075994	0.209786
2.250000	-2.967250	418.776580	0.214294	3.503140	521.995860	0.209829
2.260000	-2.916152	418.848937	0.214300	3.534930	521.912161	0.209877
2.270000	-2.888054	418.996413	0.214291	3.566167	521.816586	0.209917
2.280000	-2.869912	419.217110	0.214263	3.595116	521.707861	0.209935
2.290000	-2.854919	419.497696	0.214221	3.615311	521.594193	0.209919
2.300000	-2.845417	419.820964	0.214174	3.618169	521.492976	0.209865
2.310000	-2.847887	420.166576	0.214131	3.596899	521.424836	0.209777
2.320000	-2.864484	420.504917	0.214097	3.549712	521.403714	0.209667
2.330000	-2.888086	420.790178	0.214066	3.480945	521.429230	0.209544
2.340000	-2.905087	420.961492	0.214024	3.399768	521.487077	0.209418
2.350000	-2.904376	420.957219	0.213954	3.317039	521.557352	0.209293
2.360000	-2.886366	420.738700	0.213847	3.241420	521.624706	0.209168
2.370000	-2.865677	420.311815	0.213709	3.176191	521.683804	0.209038
2.380000	-2.864979	419.733404	0.213557	3.118332	521.739143	0.208904
2.390000	-2.903051	419.096617	0.213413	3.060816	521.803568	0.208771
2.400000	-2.983836	418.500451	0.213299	2.997601	521.899254	0.208650
2.410000	-3.092994	418.017585	0.213225	2.929022	522.059246	0.208556
2.420000	-3.204154	417.675721	0.213192	2.864385	522.323274	0.208500
2.430000	-3.291424	417.460424	0.213188	2.819550	522.723893	0.208485
2.440000	-3.341128	417.335631	0.213193	2.809952	523.266557	0.208502
2.450000	-3.356468	417.268395	0.213189	2.842381	523.913945	0.208531
2.460000	-3.353101	417.242848	0.213161	2.910015	524.585288	0.208554
2.470000	-3.348747	417.255937	0.213100	2.993626	525.174925	0.208556
2.480000	-3.352999	417.299921	0.213004	3.068460	525.584694	0.208533
2.490000	-3.363031	417.346135	0.212878	3.113222	525.757451	0.208493
2.500000	-3.367364	417.344729	0.212731	3.116803	525.698003	0.208445
2.510000	-3.355141	417.244975	0.212577	3.080146	525.473418	0.208395
2.520000	-3.325130	417.025935	0.212434	3.013411	525.193357	0.208343
2.530000	-3.288913	416.717610	0.212319	2.930780	524.977763	0.208287
2.540000	-3.266349	416.395829	0.212249	2.845762	524.921518	0.208225
2.550000	-3.276168	416.149652	0.212230	2.768935	525.065240	0.208161
2.560000	-3.327177	416.038234	0.212256	2.708316	525.380535	0.208106
2.570000	-3.414617	416.062187	0.212305	2.670917	525.776391	0.208073
2.580000	-3.522666	416.166170	0.212351	2.663434	526.128222	0.208068
2.590000	-3.630740	416.270297	0.212371	2.690769	526.321845	0.208092
2.600000	-3.720035	416.311005	0.212361	2.752881	526.295836	0.208136
2.610000	-3.777869	416.268277	0.212329	2.842047	526.063871	0.208189
2.620000	-3.799423	416.166599	0.212301	2.942902	525.707069	0.208240
2.630000	-3.787696	416.053328	0.212297	3.036226	525.340973	0.208280
2.640000	-3.752298	415.969792	0.212328	3.105253	525.073785	0.208306
2.650000	-3.706877	415.931665	0.212389	3.141640	524.974578	0.208322
2.660000	-3.664766	415.927347	0.212463	3.148206	525.061887	0.208332
2.670000	-3.633519	415.931730	0.212531	3.137226	525.310696	0.208346
2.680000	-3.610607	415.924665	0.212581	3.125300	525.667825	0.208371
2.690000	-3.583294	415.902702	0.212612	3.127434	526.066130	0.208415
2.700000	-3.534195	415.878802	0.212634	3.152904	526.434383	0.208477
2.710000	-3.450625	415.872936	0.212653	3.204065	526.705776	0.208550
2.720000	-3.332702	415.901151	0.212674	3.277470	526.828818	0.208620
2.730000	-3.195104	415.969317	0.212690	3.365685	526.780008	0.208670
2.740000	-3.061289	416.072631	0.212692	3.458614	526.572639	0.208689
2.750000	-2.954126	416.197847	0.212669	3.544330	526.255463	0.208673
2.760000	-2.889034	416.325266	0.212615	3.610295	525.899718	0.208628
2.770000	-2.872933	416.431026	0.212532	3.645630	525.579247	0.208565
2.780000	-2.907136	416.492910	0.212426	3.644034	525.351247	0.208497
2.790000	-2.989435	416.500971	0.212310	3.606023	525.243131	0.208434
2.800000	-3.112538	416.468363	0.212194	3.539086	525.247238	0.208378
2.810000	-3.260661	416.433145	0.212090	3.455294	525.323315	0.208327
2.820000	-3.408899	416.444405	0.212005	3.367279	525.408969	0.208276
2.830000	-3.528484	416.536099	0.211940	3.284467	525.437872	0.208216
2.840000	-3.596448	416.702558	0.211885	3.211434	525.362328	0.208142
2.850000	-3.604598	416.892188	0.211829	3.149031	525.172437	0.208056
2.860000	-3.562779	417.027100	0.211761	3.097163	524.902637	0.207963
2.870000	-3.494745	417.041215	0.211681	3.057118	524.620596	0.207874
2.880000	-3.429064	416.917107	0.211599	3.031814	524.401798	0.207801
2.890000	-3.389484	416.700474	0.211534	3.023973	524.300725	0.207753
2.900000	-3.388405	416.482414	0.211508	3.033729	524.331412	0.207733
2.910000	-3.424693	416.357774	0.211534	3.057438	524.465262	0.207736
