time (s)	dominant Fap (N)	dominant Fvert (N)	dominant CPap (m)	non-dominant Fap (N)	non-dominant Fvert (N)	non-dominant CPap (m)
0.000000	4.007840	333.405117	0.222760	-5.631335	359.515196	0.215630
0.010000	4.001185	333.314117	0.222675	-5.500881	359.420636	0.215760
0.020000	3.999479	333.221547	0.222608	-5.375266	359.361320	0.215892
0.030000	4.008955	333.136330	0.222575	-5.258652	359.370066	0.216030
0.040000	4.036006	333.078257	0.222584	-5.153435	359.466919	0.216179
0.050000	4.083958	333.069329	0.222634	-5.058342	359.643634	0.216342
0.060000	4.149574	333.120385	0.222715	-4.967930	359.855114	0.216513
0.070000	4.222267	333.222400	0.222813	-4.875133	360.030091	0.216675
0.080000	4.287574	333.349337	0.222912	-4.776319	360.101455	0.216808
0.090000	4.333491	333.471666	0.223005	-4.675775	360.041248	0.216893
0.100000	4.356071	333.572378	0.223093	-4.585899	359.878730	0.216927
0.110000	4.360991	333.655793	0.223181	-4.521634	359.688290	0.216918
0.120000	4.360353	333.744217	0.223280	-4.491859	359.552396	0.216887
0.130000	4.366802	333.864557	0.223391	-4.493402	359.520555	0.216852
0.140000	4.388141	334.031767	0.223512	-4.512354	359.587494	0.216826
0.150000	4.424606	334.236665	0.223632	-4.532491	359.701184	0.216812
0.160000	4.469231	334.443288	0.223738	-4.545234	359.793047	0.216802
0.170000	4.510556	334.597314	0.223822	-4.554215	359.811055	0.216790
0.180000	4.536761	334.643516	0.223886	-4.571393	359.738375	0.216775
0.190000	4.540236	334.546805	0.223944	-4.607842	359.592259	0.216763
0.200000	4.520997	334.308859	0.224015	-4.665827	359.410491	0.216764
0.210000	4.487006	333.972198	0.224111	-4.737109	359.237004	0.216787
0.220000	4.450410	333.607836	0.224233	-4.807590	359.113293	0.216834
0.230000	4.421198	333.290546	0.224363	-4.864301	359.074322	0.216902
0.240000	4.402050	333.072857	0.224477	-4.900249	359.144458	0.216981
0.250000	4.388091	332.969938	0.224555	-4.914890	359.332294	0.217060
0.260000	4.372324	332.960894	0.224594	-4.910820	359.627851	0.217135
0.270000	4.353510	333.002106	0.224621	-4.889057	360.005660	0.217212
0.280000	4.340971	333.042308	0.224681	-4.845924	360.432476	0.217304
0.290000	4.352336	333.031419	0.224821	-4.774133	360.874436	0.217430
0.300000	4.404693	332.923335	0.225071	-4.668694	361.299834	0.217599
0.310000	4.504133	332.679765	0.225421	-4.534859	361.678917	0.217812
0.320000	4.640050	332.281484	0.225829	-4.392562	361.985461	0.218052
0.330000	4.787808	331.745187	0.226234	-4.272526	362.202551	0.218292
0.340000	4.918418	331.134825	0.226579	-4.203987	362.329485	0.218504
0.350000	5.009949	330.554313	0.226837	-4.200085	362.383932	0.218668
0.360000	5.054832	330.117266	0.227011	-4.249736	362.396537	0.218774
0.370000	5.060073	329.904226	0.227132	-4.321776	362.401091	0.218826
0.380000	5.041582	329.928472	0.227231	-4.379798	362.426379	0.218838
0.390000	5.016590	330.129459	0.227324	-4.399483	362.493127	0.218826
0.400000	4.998079	330.398683	0.227408	-4.378711	362.614154	0.218805
0.410000	4.992759	330.625189	0.227465	-4.335362	362.793243	0.218785
0.420000	5.001596	330.738225	0.227483	-4.295221	363.020691	0.218770
0.430000	5.021067	330.727623	0.227465	-4.277875	363.268438	0.218755
0.440000	5.044249	330.635297	0.227429	-4.288622	363.490483	0.218733
0.450000	5.062298	330.525665	0.227400	-4.319627	363.632479	0.218694
0.460000	5.066982	330.451676	0.227393	-4.357549	363.648880	0.218635
0.470000	5.053728	330.433103	0.227403	-4.391661	363.520576	0.218554
0.480000	5.023371	330.455878	0.227410	-4.417696	363.264092	0.218457
0.490000	4.981071	330.489788	0.227385	-4.436575	362.926937	0.218351
0.500000	4.932889	330.512657	0.227308	-4.450723	362.570853	0.218243
0.510000	4.882618	330.526905	0.227175	-4.461379	362.251228	0.218142
0.520000	4.831518	330.559632	0.227001	-4.468402	362.002490	0.218050
0.530000	4.781188	330.646846	0.226811	-4.471590	361.834768	0.217968
0.540000	4.736747	330.810711	0.226629	-4.471708	361.740003	0.217896
0.550000	4.706713	331.042107	0.226468	-4.470404	361.701187	0.217833
0.560000	4.698398	331.298075	0.226329	-4.469634	361.699217	0.217777
0.570000	4.711472	331.516483	0.226203	-4.471489	361.716001	0.217732
0.580000	4.734470	331.641822	0.226081	-4.478459	361.735764	0.217698
0.590000	4.747625	331.650035	0.225962	-4.493530	361.746625	0.217677
0.600000	4.731378	331.559962	0.225855	-4.519599	361.742550	0.217662
0.610000	4.676129	331.424938	0.225776	-4.558365	361.724349	0.217648
0.620000	4.587719	331.308189	0.225734	-4.609115	361.698662	0.217627
0.630000	4.485615	331.254471	0.225725	-4.667915	361.675097	0.217593
0.640000	4.394950	331.272585	0.225727	-4.727785	361.662552	0.217550
0.650000	4.336745	331.337237	0.225711	-4.780375	361.665910	0.217503
0.660000	4.321013	331.407769	0.225652	-4.818853	361.683834	0.217461
0.670000	4.345192	331.452157	0.225549	-4.840459	361.707984	0.217433
0.680000	4.397363	331.462563	0.225424	-4.846770	361.723979	0.217421
0.690000	4.461762	331.454728	0.225314	-4.841194	361.714957	0.217421
0.700000	4.523877	331.453737	0.225252	-4.825613	361.668353	0.217428
0.710000	4.573533	331.476770	0.225249	-4.799174	361.584295	0.217434
0.720000	4.605733	331.524117	0.225287	-4.760659	361.480814	0.217432
0.730000	4.619955	331.582902	0.225328	-4.712763	361.390413	0.217421
0.740000	4.618873	331.639034	0.225331	-4.664781	361.346780	0.217399
0.750000	4.607208	331.688150	0.225269	-4.631133	361.367575	0.217367
0.760000	4.590903	331.738366	0.225143	-4.626107	361.443609	0.217322
0.770000	4.576332	331.803725	0.224979	-4.657599	361.542056	0.217260
0.780000	4.569204	331.892730	0.224816	-4.723047	361.622781	0.217183
0.790000	4.573250	331.998539	0.224693	-4.809332	361.658426	0.217097
0.800000	4.589251	332.096333	0.224637	-4.896559	361.646628	0.217012
0.810000	4.614981	332.150349	0.224655	-4.964401	361.608125	0.216937
0.820000	4.646063	332.128771	0.224733	-4.998901	361.573509	0.216879
0.830000	4.677246	332.019898	0.224843	-4.997163	361.567695	0.216838
0.840000	4.703429	331.840334	0.224954	-4.967537	361.600836	0.216810
0.850000	4.720185	331.628758	0.225042	-4.924715	361.668703	0.216785
0.860000	4.723932	331.427190	0.225092	-4.882078	361.759387	0.216758
0.870000	4.712120	331.260534	0.225100	-4.845816	361.860974	0.216727
0.880000	4.683608	331.127381	0.225072	-4.814605	361.966664	0.216692
0.890000	4.639227	331.007928	0.225017	-4.785030	362.076666	0.216654
0.900000	4.582365	330.883209	0.224949	-4.758643	362.197501	0.216612
0.910000	4.519305	330.752047	0.224880	-4.744938	362.339017	0.216565
0.920000	4.458767	330.633961	0.224818	-4.757170	362.509314	0.216508
0.930000	4.410114	330.556033	0.224767	-4.803371	362.708733	0.216440
0.940000	4.380391	330.532641	0.224727	-4.879098	362.925564	0.216358
0.950000	4.371470	330.551734	0.224689	-4.967674	363.136462	0.216267
0.960000	4.379240	330.577130	0.224642	-5.048043	363.312987	0.216171
0.970000	4.395789	330.566113	0.224580	-5.104489	363.432406	0.216081
0.980000	4.413503	330.491855	0.224503	-5.131425	363.487838	0.216007
0.990000	4.428350	330.357062	0.224420	-5.131318	363.492020	0.215954
1.000000	4.440142	330.190801	0.224348	-5.109674	363.471919	0.215924
1.010000	4.449850	330.030984	0.224301	-5.072427	363.456694	0.215911
1.020000	4.456298	329.903464	0.224285	-5.027088	363.465814	0.215910
1.030000	4.455024	329.810101	0.224296	-4.984238	363.503989	0.215915
1.040000	4.440326	329.732347	0.224318	-4.955441	363.564987	0.215928
1.050000	4.409154	329.647982	0.224332	-4.947494	363.640803	0.215951
1.060000	4.364243	329.550974	0.224327	-4.957070	363.730049	0.215990
1.070000	4.314408	329.461597	0.224301	-4.970258	363.840677	0.216047
1.080000	4.271779	329.418158	0.224268	-4.968192	363.985354	0.216121
1.090000	4.247519	329.452252	0.224246	-4.935894	364.171092	0.216210
1.100000	4.248310	329.560943	0.224250	-4.869648	364.387958	0.216312
1.110000	4.275174	329.693803	0.224287	-4.779357	364.603870	0.216422
1.120000	4.324677	329.765777	0.224353	-4.684928	364.771469	0.216530
1.130000	4.391224	329.691996	0.224433	-4.608307	364.847232	0.216625
1.140000	4.468861	329.427317	0.224512	-4.564492	364.814865	0.216697
1.150000	4.551805	328.990147	0.224577	-4.555595	364.700141	0.216744
1.160000	4.633975	328.458887	0.224626	-4.571051	364.567106	0.216774
1.170000	4.708462	327.944061	0.224666	-4.594140	364.495080	0.216802
1.180000	4.767859	327.550501	0.224710	-4.611141	364.546406	0.216844
1.190000	4.805754	327.345840	0.224774	-4.617483	364.739909	0.216906
1.200000	4.818858	327.345107	0.224867	-4.617019	365.041811	0.216982
1.210000	4.808565	327.512609	0.224988	-4.615260	365.377061	0.217059
1.220000	4.780885	327.776872	0.225123	-4.611754	365.655076	0.217120
1.230000	4.744658	328.053066	0.225251	-4.597543	365.799020	0.217159
1.240000	4.709101	328.267497	0.225347	-4.560307	365.768159	0.217177
1.250000	4.681947	328.378218	0.225399	-4.494343	365.567038	0.217185
1.260000	4.668640	328.385724	0.225410	-4.408679	365.240856	0.217196
1.270000	4.672078	328.329738	0.225394	-4.326862	364.861096	0.217220
1.280000	4.692264	328.272630	0.225378	-4.276797	364.507444	0.217259
1.290000	4.725950	328.274848	0.225382	-4.275689	364.250782	0.217307
1.300000	4.767090	328.371054	0.225416	-4.319270	364.139211	0.217361
1.310000	4.808682	328.556159	0.225476	-4.382683	364.187466	0.217417
1.320000	4.845476	328.787351	0.225543	-4.433339	364.371245	0.217472
1.330000	4.876032	329.001565	0.225594	-4.448343	364.630281	0.217520
1.340000	4.902623	329.140348	0.225611	-4.426253	364.883546	0.217552
1.350000	4.928785	329.170324	0.225588	-4.386748	365.054864	0.217554
1.360000	4.955995	329.090603	0.225534	-4.359291	365.099789	0.217515
1.370000	4.981757	328.926587	0.225468	-4.367856	365.020802	0.217439
1.380000	5.000496	328.716987	0.225409	-4.420042	364.861863	0.217341
1.390000	5.006601	328.502452	0.225375	-4.505597	364.684005	0.217246
1.400000	4.997408	328.319830	0.225371	-4.604010	364.534420	0.217174
1.410000	4.974178	328.200264	0.225391	-4.696068	364.425359	0.217133
1.420000	4.940978	328.166712	0.225418	-4.772331	364.333641	0.217113
1.430000	4.903026	328.228857	0.225433	-4.833539	364.220308	0.217093
1.440000	4.865939	328.378045	0.225419	-4.883471	364.059318	0.217052
1.450000	4.835739	328.587709	0.225368	-4.920173	363.859510	0.216980
1.460000	4.818255	328.822661	0.225284	-4.932917	363.667426	0.216885
1.470000	4.817154	329.054600	0.225183	-4.908019	363.548319	0.216787
1.480000	4.831511	329.275406	0.225090	-4.839919	363.553981	0.216710
1.490000	4.854906	329.499109	0.225026	-4.739624	363.693130	0.216669
1.500000	4.877261	329.749154	0.225000	-4.634085	363.919230	0.216663
1.510000	4.888754	330.036596	0.225006	-4.555998	364.142492	0.216676
1.520000	4.883741	330.341522	0.225020	-4.529720	364.261373	0.216678
1.530000	4.862587	330.610070	0.225012	-4.561351	364.199809	0.216639
1.540000	4.830530	330.772012	0.224960	-4.638256	363.933988	0.216539
1.550000	4.794255	330.772621	0.224860	-4.737475	363.498277	0.216376
1.560000	4.757927	330.603465	0.224731	-4.837321	362.970655	0.216173
1.570000	4.720797	330.315391	0.224606	-4.925305	362.447282	0.215968
1.580000	4.677792	330.004946	0.224520	-4.998876	362.018112	0.215800
1.590000	4.623039	329.778922	0.224485	-5.060842	361.750439	0.215697
1.600000	4.554669	329.713404	0.224492	-5.114502	361.680344	0.215660
1.610000	4.478366	329.826763	0.224506	-5.162148	361.808967	0.215670
1.620000	4.407589	330.078558	0.224490	-5.206238	362.102621	0.215693
1.630000	4.359936	330.392482	0.224419	-5.249481	362.498706	0.215696
1.640000	4.350999	330.689708	0.224292	-5.291399	362.919018	0.215661
1.650000	4.388168	330.915728	0.224135	-5.323527	363.287986	0.215589
1.660000	4.466856	331.050243	0.223985	-5.328687	363.549511	0.215497
1.670000	4.570554	331.100450	0.223873	-5.288052	363.675955	0.215414
1.680000	4.674735	331.086552	0.223812	-5.193630	363.667116	0.215360
1.690000	4.753449	331.029730	0.223788	-5.058376	363.542602	0.215348
1.700000	4.786679	330.947857	0.223777	-4.916060	363.333856	0.215372
1.710000	4.766259	330.856934	0.223757	-4.808983	363.080089	0.215415
1.720000	4.698319	330.772084	0.223715	-4.769350	362.827223	0.215455
1.730000	4.601100	330.703877	0.223655	-4.804279	362.625165	0.215472
1.740000	4.498612	330.651834	0.223588	-4.892412	362.519344	0.215461
1.750000	4.412506	330.601553	0.223525	-4.993516	362.537062	0.215425
1.760000	4.355476	330.530470	0.223467	-5.065649	362.674193	0.215374
1.770000	4.328898	330.420416	0.223413	-5.081297	362.889937	0.215321
1.780000	4.325231	330.268970	0.223361	-5.035589	363.115307	0.215277
1.790000	4.333419	330.091793	0.223313	-4.944454	363.275515	0.215245
1.800000	4.344337	329.914892	0.223272	-4.835485	363.319383	0.215227
1.810000	4.353840	329.763405	0.223241	-4.736770	363.243457	0.215221
1.820000	4.362610	329.655325	0.223218	-4.668526	363.098150	0.215224
1.830000	4.373612	329.603078	0.223198	-4.639655	362.969842	0.215233
1.840000	4.388912	329.618003	0.223174	-4.648388	362.944293	0.215244
1.850000	4.407518	329.709856	0.223144	-4.684823	363.067058	0.215255
1.860000	4.425115	329.878516	0.223106	-4.733816	363.319526	0.215263
1.870000	4.435594	330.103827	0.223063	-4.778263	363.622557	0.215270
1.880000	4.433514	330.343951	0.223019	-4.803422	363.866885	0.215281
1.890000	4.416286	330.548003	0.222972	-4.801765	363.957052	0.215303
1.900000	4.385086	330.678267	0.222921	-4.776158	363.849755	0.215342
1.910000	4.344108	330.729168	0.222859	-4.738791	363.570452	0.215396
1.920000	4.298753	330.730735	0.222784	-4.705291	363.201932	0.215459
1.930000	4.253947	330.733177	0.222693	-4.686650	362.850559	0.215516
1.940000	4.213651	330.780484	0.222593	-4.683629	362.604871	0.215557
1.950000	4.181596	330.887554	0.222490	-4.687370	362.503919	0.215571
1.960000	4.162251	331.033573	0.222397	-4.686263	362.528170	0.215555
1.970000	4.160711	331.175118	0.222324	-4.674959	362.615533	0.215506
1.980000	4.181040	331.270846	0.222279	-4.659631	362.693618	0.215429
1.990000	4.223780	331.302623	0.222270	-4.655630	362.712124	0.215331
2.000000	4.284202	331.280352	0.222302	-4.678357	362.660367	0.215223
2.010000	4.352572	331.228842	0.222374	-4.732668	362.563580	0.215122
2.020000	4.416717	331.167491	0.222482	-4.807476	362.462905	0.215046
2.030000	4.465919	331.098044	0.222611	-4.879600	362.391672	0.215009
2.040000	4.494585	331.008579	0.222742	-4.925351	362.360808	0.215013
2.050000	4.504168	330.888829	0.222852	-4.933075	362.359401	0.215052
2.060000	4.502455	330.743625	0.222924	-4.908662	362.367001	0.215109
2.070000	4.500251	330.593898	0.222949	-4.870352	362.367597	0.215167
2.080000	4.506606	330.465188	0.222930	-4.836497	362.355709	0.215209
2.090000	4.524581	330.372898	0.222882	-4.814767	362.332242	0.215229
2.100000	4.549675	330.314989	0.222824	-4.799862	362.296409	0.215224
2.110000	4.571887	330.276682	0.222771	-4.780355	362.242922	0.215200
2.120000	4.580556	330.243297	0.222732	-4.748879	362.168228	0.215165
2.130000	4.569595	330.212266	0.222704	-4.708166	362.080653	0.215132
2.140000	4.540501	330.196399	0.222681	-4.669166	362.004718	0.215120
2.150000	4.501638	330.216731	0.222657	-4.643324	361.973409	0.215147
2.160000	4.464222	330.290226	0.222627	-4.634938	362.010816	0.215223
2.170000	4.437050	330.420539	0.222592	-4.638895	362.114851	0.215340
2.180000	4.422674	330.596987	0.222554	-4.645031	362.251357	0.215470
2.190000	4.416960	330.800619	0.222514	-4.645872	362.365599	0.215575
2.200000	4.412098	331.012044	0.222472	-4.642552	362.407618	0.215619
2.210000	4.401211	331.216229	0.222429	-4.645135	362.358892	0.215585
2.220000	4.381877	331.403360	0.222385	-4.666860	362.245066	0.215489
2.230000	4.356669	331.567720	0.222341	-4.715118	362.125742	0.215366
2.240000	4.330777	331.706299	0.222301	-4.783911	362.064709	0.215262
2.250000	4.308563	331.817045	0.222271	-4.852523	362.095566	0.215212
2.260000	4.291414	331.896345	0.222258	-4.892652	362.201328	0.215226
2.270000	4.278280	331.937140	0.222266	-4.881798	362.319902	0.215292
2.280000	4.268436	331.930407	0.222293	-4.816318	362.373735	0.215384
2.290000	4.264453	331.870945	0.222340	-4.716374	362.308816	0.215478
2.300000	4.273049	331.764325	0.222401	-4.618687	362.122995	0.215556
2.310000	4.302657	331.629371	0.222472	-4.559865	361.869028	0.215613
2.320000	4.358537	331.492789	0.222544	-4.558869	361.631063	0.215653
2.330000	4.437985	331.378212	0.222611	-4.608021	361.486906	0.215676
2.340000	4.528588	331.296336	0.222664	-4.677225	361.474837	0.215683
2.350000	4.611299	331.242273	0.222703	-4.728777	361.579835	0.215675
2.360000	4.667689	331.201347	0.222730	-4.734744	361.743194	0.215656
2.370000	4.688287	331.159352	0.222758	-4.688284	361.888855	0.215635
2.380000	4.677660	331.111134	0.222804	-4.604319	361.954443	0.215629
2.390000	4.652942	331.062904	0.222882	-4.510751	361.915381	0.215653
2.400000	4.635834	331.027407	0.223002	-4.435523	361.793967	0.215717
2.410000	4.641944	331.015038	0.223162	-4.395457	361.650322	0.215820
2.420000	4.673286	331.026337	0.223350	-4.390787	361.558390	0.215952
2.430000	4.718245	331.050551	0.223539	-4.406454	361.576267	0.216100
2.440000	4.758909	331.071048	0.223703	-4.419201	361.723220	0.216244
2.450000	4.781220	331.073695	0.223819	-4.407967	361.973199	0.216370
2.460000	4.781853	331.052458	0.223876	-4.363673	362.267240	0.216466
2.470000	4.768043	331.009139	0.223881	-4.293786	362.538516	0.216521
2.480000	4.751248	330.949123	0.223854	-4.218767	362.738205	0.216530
2.490000	4.739284	330.877878	0.223817	-4.161850	362.850438	0.216495
2.500000	4.732095	330.801276	0.223790	-4.137898	362.890401	0.216422
2.510000	4.723417	330.728545	0.223781	-4.147868	362.888591	0.216328
2.520000	4.706581	330.673688	0.223790	-4.181543	362.871470	0.216231
2.530000	4.680177	330.652258	0.223810	-4.225758	362.849737	0.216147
2.540000	4.649792	330.674069	0.223834	-4.272399	362.819251	0.216086
2.550000	4.624966	330.735733	0.223857	-4.321740	362.770831	0.216052
2.560000	4.613757	330.817515	0.223874	-4.380211	362.700377	0.216040
2.570000	4.618788	330.887077	0.223881	-4.454579	362.613112	0.216038
2.580000	4.637286	330.909762	0.223869	-4.545549	362.521947	0.216029
2.590000	4.664528	330.862230	0.223830	-4.643420	362.444128	0.215992
2.600000	4.697523	330.744074	0.223753	-4.727873	362.399271	0.215905
2.610000	4.735754	330.581536	0.223638	-4.773076	362.407947	0.215758
2.620000	4.778386	330.419863	0.223491	-4.757491	362.487840	0.215561
2.630000	4.820481	330.306126	0.223327	-4.675212	362.646662	0.215338
2.640000	4.851930	330.270055	0.223160	-4.543556	362.875159	0.215128
2.650000	4.860893	330.312514	0.222999	-4.401764	363.145347	0.214964
2.660000	4.840156	330.407278	0.222849	-4.298830	363.416545	0.214864
2.670000	4.792342	330.513930	0.222707	-4.273919	363.647033	0.214823
2.680000	4.730283	330.593241	0.222574	-4.337867	363.806088	0.214818
2.690000	4.671762	330.616401	0.222452	-4.465675	363.881705	0.214819
2.700000	4.631318	330.565734	0.222346	-4.605699	363.882371	0.214800
2.710000	4.613632	330.431852	0.222259	-4.702680	363.834345	0.214750
2.720000	4.612178	330.214588	0.222182	-4.723556	363.776828	0.214673
2.730000	4.613688	329.930323	0.222103	-4.672425	363.756137	0.214578
2.740000	4.605674	329.620385	0.222010	-4.586519	363.817891	0.214475
2.750000	4.582626	329.350643	0.221898	-4.515776	363.995945	0.214366
2.760000	4.547685	329.195596	0.221775	-4.497823	364.299382	0.214249
2.770000	4.509515	329.209862	0.221656	-4.541905	364.702935	0.214116
2.780000	4.476856	329.399401	0.221554	-4.628820	365.148080	0.213968
2.790000	4.454151	329.707645	0.221469	-4.724072	365.558830	0.213810
2.800000	4.440340	330.025694	0.221391	-4.794807	365.868487	0.213657
2.810000	4.430608	330.224366	0.221303	-4.821290	366.045521	0.213524
2.820000	4.419151	330.195197	0.221194	-4.799266	366.104220	0.213421
2.830000	4.400909	329.883208	0.221064	-4.735801	366.092288	0.213347
2.840000	4.371594	329.298591	0.220925	-4.643949	366.061045	0.213295
2.850000	4.327025	328.505218	0.220790	-4.539730	366.036170	0.213251
2.860000	4.263468	327.595101	0.220667	-4.441167	366.008568	0.213205
2.870000	4.179753	326.663184	0.220551	-4.366912	365.952704	0.213155
2.880000	4.080092	325.793165	0.220433	-4.332734	365.860900	0.213107
2.890000	3.975301	325.055311	0.220304	-4.346507	365.769854	0.213072
2.900000	3.880680	324.508347	0.220162	-4.404146	365.759401	0.213057
2.910000	3.810933	324.195933	0.220015	-4.488914	365.920941	0.213060
