time (s)	dominant Fap (N)	dominant Fvert (N)	dominant CPap (m)	non-dominant Fap (N)	non-dominant Fvert (N)	non-dominant CPap (m)
0.000000	-3.314522	259.554235	0.218042	2.623367	257.931852	0.216101
0.010000	-3.502537	259.686327	0.217950	2.552193	258.265669	0.215957
0.020000	-3.656395	259.764277	0.217903	2.491978	258.528929	0.215871
0.030000	-3.755235	259.744914	0.217934	2.454609	258.677987	0.215887
0.040000	-3.798365	259.606724	0.218056	2.451733	258.707357	0.216034
0.050000	-3.801736	259.356526	0.218259	2.492129	258.644582	0.216315
0.060000	-3.787574	259.031034	0.218513	2.578215	258.532067	0.216709
0.070000	-3.773621	258.691197	0.218786	2.703212	258.407204	0.217177
0.080000	-3.767335	258.408358	0.219050	2.850473	258.291501	0.217667
0.090000	-3.766355	258.244263	0.219294	2.996202	258.192738	0.218130
0.100000	-3.762753	258.230641	0.219524	3.115956	258.116001	0.218527
0.110000	-3.747575	258.355842	0.219757	3.193426	258.074783	0.218835
0.120000	-3.713597	258.564291	0.220011	3.227807	258.094469	0.219055
0.130000	-3.656353	258.769991	0.220301	3.235496	258.205882	0.219202
0.140000	-3.574532	258.880354	0.220631	3.244158	258.432377	0.219308
0.150000	-3.470442	258.823071	0.220998	3.281304	258.777091	0.219413
0.160000	-3.350245	258.567388	0.221400	3.362736	259.216543	0.219552
0.170000	-3.223231	258.132267	0.221829	3.486394	259.703886	0.219752
0.180000	-3.099857	257.577894	0.222282	3.634215	260.181298	0.220020
0.190000	-2.989202	256.983253	0.222748	3.780432	260.597510	0.220343
0.200000	-2.896967	256.418836	0.223210	3.901601	260.924262	0.220684
0.210000	-2.824829	255.926313	0.223646	3.983233	261.165304	0.220999
0.220000	-2.771122	255.513693	0.224026	4.020575	261.353860	0.221248
0.230000	-2.732087	255.166538	0.224326	4.015177	261.538702	0.221407
0.240000	-2.702846	254.867614	0.224530	3.971339	261.763699	0.221475
0.250000	-2.677875	254.613750	0.224636	3.895564	262.048646	0.221474
0.260000	-2.651402	254.421161	0.224662	3.798591	262.378947	0.221437
0.270000	-2.618364	254.317080	0.224637	3.696650	262.708280	0.221395
0.280000	-2.575955	254.322442	0.224601	3.608979	262.973405	0.221367
0.290000	-2.524950	254.434600	0.224593	3.551770	263.115937	0.221354
0.300000	-2.469693	254.619273	0.224640	3.532010	263.103466	0.221347
0.310000	-2.416284	254.817120	0.224753	3.545180	262.942448	0.221333
0.320000	-2.369607	254.963692	0.224919	3.578324	262.678089	0.221303
0.330000	-2.330738	255.014639	0.225115	3.616463	262.381446	0.221259
0.340000	-2.296155	254.964561	0.225314	3.648446	262.129176	0.221209
0.350000	-2.259331	254.849914	0.225496	3.669130	261.983623	0.221168
0.360000	-2.213999	254.733355	0.225659	3.677652	261.979033	0.221152
0.370000	-2.157503	254.675597	0.225814	3.674205	262.115424	0.221177
0.380000	-2.092512	254.707268	0.225978	3.658343	262.358811	0.221253
0.390000	-2.026338	254.814172	0.226165	3.630082	262.647065	0.221380
0.400000	-1.968378	254.943460	0.226374	3.592415	262.902601	0.221550
0.410000	-1.927180	255.027860	0.226594	3.552559	263.052504	0.221747
0.420000	-1.908392	255.015807	0.226802	3.520189	263.052230	0.221950
0.430000	-1.913944	254.892522	0.226976	3.503345	262.903945	0.222141
0.440000	-1.941949	254.682698	0.227102	3.504454	262.659950	0.222309
0.450000	-1.986866	254.435570	0.227173	3.518929	262.407399	0.222445
0.460000	-2.040080	254.201685	0.227194	3.537180	262.239441	0.222544
0.470000	-2.091403	254.013020	0.227175	3.549084	262.224706	0.222601
0.480000	-2.131543	253.874400	0.227125	3.548651	262.387671	0.222614
0.490000	-2.154703	253.767672	0.227052	3.536460	262.706877	0.222580
0.500000	-2.160060	253.664543	0.226959	3.518475	263.129410	0.222504
0.510000	-2.151332	253.541192	0.226845	3.501947	263.593150	0.222395
0.520000	-2.134673	253.388067	0.226714	3.491059	264.046255	0.222269
0.530000	-2.115943	253.210946	0.226574	3.485202	264.456575	0.222139
0.540000	-2.098689	253.023463	0.226435	3.480756	264.809927	0.222016
0.550000	-2.083877	252.835509	0.226304	3.474605	265.101830	0.221899
0.560000	-2.071570	252.644360	0.226180	3.466648	265.329567	0.221782
0.570000	-2.063678	252.434399	0.226049	3.459862	265.489504	0.221653
0.580000	-2.066014	252.186848	0.225887	3.458412	265.580016	0.221499
0.590000	-2.087989	251.895016	0.225667	3.465131	265.606316	0.221312
0.600000	-2.139609	251.576689	0.225367	3.479175	265.582565	0.221090
0.610000	-2.227144	251.275893	0.224974	3.494275	265.529078	0.220835
0.620000	-2.349779	251.051153	0.224493	3.498404	265.466141	0.220555
0.630000	-2.498932	250.954160	0.223944	3.476130	265.408031	0.220256
0.640000	-2.660311	251.008060	0.223361	3.413913	265.360054	0.219943
0.650000	-2.817476	251.195897	0.222782	3.306372	265.318949	0.219614
0.660000	-2.955374	251.465620	0.222238	3.159961	265.275032	0.219263
0.670000	-3.062859	251.749892	0.221749	2.991426	265.214618	0.218881
0.680000	-3.133933	251.990938	0.221322	2.821503	265.122950	0.218461
0.690000	-3.167877	252.157905	0.220954	2.667389	264.988803	0.218003
0.700000	-3.168531	252.249025	0.220640	2.538234	264.810484	0.217524
0.710000	-3.142929	252.280295	0.220377	2.435990	264.600247	0.217053
0.720000	-3.099544	252.270118	0.220169	2.360664	264.383356	0.216626
0.730000	-3.046520	252.230264	0.220023	2.316235	264.190750	0.216283
0.740000	-2.990384	252.167443	0.219947	2.312844	264.048510	0.216050
0.750000	-2.935532	252.091749	0.219942	2.362937	263.969493	0.215942
0.760000	-2.884379	252.023925	0.220006	2.473018	263.950683	0.215960
0.770000	-2.837785	251.995010	0.220127	2.636001	263.975959	0.216097
0.780000	-2.795418	252.037591	0.220286	2.829423	264.021500	0.216336
0.790000	-2.756089	252.173365	0.220463	3.021353	264.061403	0.216652
0.800000	-2.718326	252.403845	0.220637	3.181107	264.072867	0.217017
0.810000	-2.681447	252.708811	0.220792	3.289150	264.041008	0.217397
0.820000	-2.646958	253.052301	0.220917	3.341666	263.962613	0.217759
0.830000	-2.619573	253.392018	0.221009	3.348844	263.847314	0.218079
0.840000	-2.606820	253.687435	0.221069	3.329033	263.715113	0.218337
0.850000	-2.616539	253.904338	0.221101	3.301824	263.590661	0.218525
0.860000	-2.652732	254.016512	0.221108	3.282300	263.495914	0.218640
0.870000	-2.711643	254.006778	0.221094	3.277779	263.443347	0.218684
0.880000	-2.780521	253.869237	0.221064	3.287822	263.432235	0.218665
0.890000	-2.840545	253.613106	0.221025	3.307423	263.450299	0.218593
0.900000	-2.873216	253.266276	0.220983	3.331748	263.481202	0.218485
0.910000	-2.867400	252.874859	0.220945	3.359517	263.514679	0.218362
0.920000	-2.823591	252.495415	0.220916	3.392725	263.553227	0.218245
0.930000	-2.753328	252.180417	0.220899	3.432928	263.610481	0.218150
0.940000	-2.674287	251.962724	0.220891	3.476945	263.702002	0.218079
0.950000	-2.603836	251.846877	0.220883	3.515226	263.834904	0.218014
0.960000	-2.554317	251.811652	0.220861	3.534150	264.003678	0.217927
0.970000	-2.531894	251.821810	0.220805	3.520881	264.194694	0.217789
0.980000	-2.538352	251.842456	0.220696	3.468457	264.395349	0.217586
0.990000	-2.573571	251.849538	0.220520	3.379540	264.600570	0.217327
1.000000	-2.636440	251.833586	0.220273	3.268110	264.811750	0.217050
1.010000	-2.723616	251.797515	0.219969	3.158145	265.028804	0.216803
1.020000	-2.827453	251.751147	0.219640	3.078068	265.241190	0.216635
1.030000	-2.935224	251.705145	0.219328	3.051349	265.425062	0.216573
1.040000	-3.031073	251.666409	0.219074	3.086864	265.550379	0.216618
1.050000	-3.100463	251.636213	0.218905	3.174517	265.595465	0.216745
1.060000	-3.135280	251.611319	0.218825	3.289558	265.560813	0.216918
1.070000	-3.136996	251.586933	0.218819	3.403763	265.473019	0.217107
1.080000	-3.115980	251.559357	0.218866	3.497225	265.374834	0.217292
1.090000	-3.086937	251.526486	0.218940	3.564274	265.305851	0.217463
1.100000	-3.062690	251.485866	0.219025	3.611100	265.284738	0.217617
1.110000	-3.049601	251.432046	0.219106	3.647785	265.303685	0.217743
1.120000	-3.046859	251.355815	0.219169	3.680384	265.338386	0.217827
1.130000	-3.049387	251.247238	0.219201	3.707791	265.366950	0.217851
1.140000	-3.052032	251.102085	0.219194	3.724420	265.385127	0.217808
1.150000	-3.052428	250.928426	0.219145	3.725748	265.407488	0.217705
1.160000	-3.051469	250.748770	0.219068	3.712123	265.453757	0.217559
1.170000	-3.051972	250.595011	0.218981	3.688014	265.529984	0.217389
1.180000	-3.056742	250.498082	0.218900	3.657644	265.618288	0.217211
1.190000	-3.066906	250.478217	0.218833	3.620846	265.683158	0.217036
1.200000	-3.080996	250.541318	0.218772	3.572614	265.690408	0.216869
1.210000	-3.095229	250.682208	0.218699	3.506797	265.625707	0.216718
1.220000	-3.105216	250.890701	0.218596	3.421373	265.500138	0.216592
1.230000	-3.108579	251.155562	0.218449	3.321915	265.340012	0.216495
1.240000	-3.107126	251.464856	0.218258	3.221250	265.169338	0.216420
1.250000	-3.107200	251.804929	0.218031	3.135224	264.997342	0.216351
1.260000	-3.117899	252.160990	0.217780	3.076013	264.818283	0.216268
1.270000	-3.148097	252.519700	0.217513	3.045408	264.621562	0.216153
1.280000	-3.203786	252.871515	0.217234	3.031175	264.403754	0.215998
1.290000	-3.286738	253.210406	0.216934	3.009086	264.174184	0.215803
1.300000	-3.394602	253.530825	0.216601	2.951116	263.950525	0.215567
1.310000	-3.521929	253.824338	0.216225	2.837101	263.747205	0.215287
1.320000	-3.661506	254.079065	0.215800	2.664635	263.563778	0.214956
1.330000	-3.805590	254.283516	0.215332	2.452076	263.380873	0.214568
1.340000	-3.946777	254.433454	0.214832	2.232570	263.167193	0.214126
1.350000	-4.078356	254.537697	0.214323	2.041596	262.894540	0.213650
1.360000	-4.194114	254.618267	0.213828	1.903912	262.552951	0.213170
1.370000	-4.287840	254.703210	0.213371	1.826014	262.158128	0.212720
1.380000	-4.353051	254.815389	0.212976	1.797232	261.747979	0.212331
1.390000	-4.383437	254.963935	0.212664	1.798087	261.370865	0.212023
1.400000	-4.374149	255.143679	0.212447	1.811099	261.071473	0.211802
1.410000	-4.323526	255.342070	0.212336	1.828608	260.879735	0.211669
1.420000	-4.234490	255.547320	0.212333	1.854392	260.805279	0.211620
1.430000	-4.114891	255.750844	0.212430	1.899499	260.836963	0.211657
1.440000	-3.976445	255.942598	0.212612	1.975401	260.945845	0.211782
1.450000	-3.832486	256.105135	0.212851	2.088090	261.090358	0.211994
1.460000	-3.695221	256.214715	0.213118	2.235349	261.222997	0.212289
1.470000	-3.573442	256.252914	0.213384	2.407490	261.297994	0.212650
1.480000	-3.471593	256.223207	0.213631	2.590487	261.279272	0.213055
1.490000	-3.390474	256.161051	0.213853	2.770057	261.147705	0.213475
1.500000	-3.328958	256.127826	0.214054	2.935342	260.906067	0.213881
1.510000	-3.285423	256.188311	0.214244	3.081057	260.579409	0.214250
1.520000	-3.257843	256.382133	0.214434	3.207209	260.209277	0.214568
1.530000	-3.242722	256.704629	0.214627	3.316300	259.842554	0.214829
1.540000	-3.234269	257.108164	0.214823	3.409625	259.518412	0.215039
1.550000	-3.225341	257.523644	0.215014	3.485556	259.257896	0.215205
1.560000	-3.210293	257.890882	0.215187	3.541897	259.059475	0.215336
1.570000	-3.188260	258.182191	0.215326	3.581077	258.901657	0.215437
1.580000	-3.164638	258.408165	0.215417	3.613644	258.751783	0.215508
1.590000	-3.149512	258.604715	0.215447	3.655702	258.578635	0.215544
1.600000	-3.153612	258.809881	0.215411	3.720200	258.365085	0.215546
1.610000	-3.183861	259.043043	0.215310	3.807085	258.116066	0.215516
1.620000	-3.240687	259.296224	0.215154	3.899016	257.857861	0.215466
1.630000	-3.318131	259.539826	0.214953	3.966065	257.628063	0.215406
1.640000	-3.406228	259.737649	0.214723	3.977520	257.460576	0.215341
1.650000	-3.494208	259.862435	0.214476	3.915121	257.373444	0.215264
1.660000	-3.573115	259.904548	0.214230	3.781839	257.366090	0.215164
1.670000	-3.637171	259.871181	0.214000	3.602699	257.426531	0.215026
1.680000	-3.683997	259.778473	0.213803	3.417304	257.542428	0.214847
1.690000	-3.714133	259.641542	0.213653	3.266563	257.707641	0.214638
1.700000	-3.730327	259.467007	0.213560	3.178276	257.920153	0.214416
1.710000	-3.736788	259.250270	0.213526	3.157308	258.174542	0.214204
1.720000	-3.738227	258.977696	0.213540	3.185240	258.456705	0.214019
1.730000	-3.738376	258.632621	0.213590	3.230848	258.746709	0.213873
1.740000	-3.737960	258.203251	0.213661	3.267338	259.028933	0.213776
1.750000	-3.732991	257.689503	0.213750	3.287689	259.302559	0.213735
1.760000	-3.714849	257.105538	0.213866	3.309086	259.584807	0.213754
1.770000	-3.673123	256.476641	0.214036	3.362756	259.904433	0.213831
1.780000	-3.600454	255.832618	0.214288	3.474066	260.289313	0.213957
1.790000	-3.497062	255.202233	0.214638	3.644309	260.754520	0.214118
1.800000	-3.372390	254.611597	0.215080	3.845270	261.295076	0.214303
1.810000	-3.242757	254.085069	0.215582	4.030363	261.884342	0.214501
1.820000	-3.125937	253.644249	0.216089	4.156256	262.477953	0.214707
1.830000	-3.034938	253.302539	0.216541	4.202913	263.023709	0.214914
1.840000	-2.973549	253.057931	0.216891	4.181256	263.476311	0.215114
1.850000	-2.935480	252.890333	0.217113	4.125111	263.811827	0.215292
1.860000	-2.907745	252.768252	0.217208	4.072744	264.034277	0.215436
1.870000	-2.877250	252.663657	0.217200	4.048201	264.169900	0.215536
1.880000	-2.837864	252.567632	0.217126	4.051555	264.252121	0.215587
1.890000	-2.794408	252.497240	0.217020	4.061562	264.306120	0.215595
1.900000	-2.760888	252.487864	0.216904	4.047890	264.341188	0.215565
1.910000	-2.753266	252.573356	0.216784	3.986454	264.352734	0.215507
1.920000	-2.780342	252.764084	0.216652	3.871292	264.329245	0.215427
1.930000	-2.837979	253.035285	0.216496	3.718655	264.257842	0.215330
1.940000	-2.910394	253.333031	0.216305	3.561902	264.125860	0.215219
1.950000	-2.978263	253.595529	0.216075	3.438811	263.921291	0.215097
1.960000	-3.029231	253.779375	0.215807	3.375873	263.636587	0.214963
1.970000	-3.064706	253.878116	0.215500	3.376224	263.276739	0.214811
1.980000	-3.098826	253.924650	0.215152	3.417195	262.866803	0.214631
1.990000	-3.150123	253.976514	0.214758	3.459402	262.451859	0.214414
2.000000	-3.230839	254.090378	0.214316	3.463445	262.086272	0.214154
2.010000	-3.340082	254.296638	0.213839	3.406147	261.816264	0.213856
2.020000	-3.464309	254.585250	0.213353	3.288604	261.664414	0.213535
2.030000	-3.584113	254.909390	0.212894	3.132875	261.623417	0.213211
2.040000	-3.682948	255.205373	0.212498	2.970116	261.660780	0.212901
2.050000	-3.753231	255.419242	0.212192	2.826806	261.730741	0.212619
2.060000	-3.797378	255.527194	0.211983	2.715693	261.787737	0.212369
2.070000	-3.824208	255.540853	0.211860	2.635018	261.797224	0.212149
2.080000	-3.843065	255.496915	0.211798	2.575212	261.742106	0.211956
2.090000	-3.858709	255.438429	0.211772	2.528621	261.624559	0.211785
2.100000	-3.869358	255.397586	0.211765	2.496336	261.463563	0.211630
2.110000	-3.868692	255.386937	0.211773	2.487825	261.288767	0.211484
2.120000	-3.850540	255.400632	0.211805	2.513376	261.131972	0.211341
2.130000	-3.813491	255.422859	0.211872	2.574201	261.018309	0.211198
2.140000	-3.762607	255.438937	0.211978	2.657150	260.959612	0.211063
2.150000	-3.707205	255.444865	0.212114	2.738518	260.951993	0.210945
2.160000	-3.656111	255.452312	0.212257	2.795614	260.978188	0.210857
2.170000	-3.613439	255.487332	0.212380	2.819353	261.013239	0.210803
2.180000	-3.577539	255.582463	0.212459	2.819760	261.030841	0.210783
2.190000	-3.543693	255.763968	0.212484	2.820179	261.008138	0.210784
2.200000	-3.508632	256.038611	0.212461	2.842860	260.928674	0.210791
2.210000	-3.473780	256.386073	0.212403	2.894238	260.784746	0.210788
2.220000	-3.444979	256.761745	0.212328	2.959007	260.579917	0.210769
2.230000	-3.428888	257.109967	0.212253	3.007263	260.330329	0.210738
2.240000	-3.428604	257.382255	0.212185	3.011215	260.061935	0.210703
2.250000	-3.441731	257.552556	0.212122	2.962024	259.802249	0.210673
2.260000	-3.462372	257.623581	0.212052	2.876760	259.569468	0.210651
2.270000	-3.485647	257.622930	0.211957	2.791033	259.365773	0.210632
2.280000	-3.511402	257.591516	0.211819	2.741156	259.181214	0.210607
2.290000	-3.544357	257.568366	0.211633	2.745890	259.008243	0.210566
2.300000	-3.590389	257.576040	0.211412	2.797850	258.858310	0.210508
2.310000	-3.651264	257.611083	0.211191	2.868705	258.767845	0.210443
2.320000	-3.721034	257.643766	0.211010	2.924360	258.786154	0.210388
2.330000	-3.786360	257.629296	0.210910	2.941294	258.949850	0.210361
2.340000	-3.830871	257.527813	0.210910	2.915841	259.258679	0.210372
2.350000	-3.841630	257.324744	0.211004	2.863018	259.668150	0.210417
2.360000	-3.814635	257.040728	0.211164	2.807258	260.104237	0.210491
2.370000	-3.756698	256.724590	0.211351	2.770805	260.492226	0.210582
2.380000	-3.682758	256.432307	0.211532	2.765469	260.784508	0.210683
2.390000	-3.609896	256.203367	0.211689	2.790522	260.974768	0.210790
2.400000	-3.550979	256.047002	0.211826	2.836008	261.094940	0.210902
2.410000	-3.510896	255.943600	0.211962	2.888469	261.199700	0.211015
2.420000	-3.486744	255.856650	0.212119	2.936185	261.346693	0.211127
2.430000	-3.471048	255.745431	0.212309	2.972474	261.579325	0.211236
2.440000	-3.455605	255.571908	0.212533	2.996892	261.915839	0.211342
2.450000	-3.433903	255.302934	0.212771	3.014462	262.345677	0.211440
2.460000	-3.401759	254.913659	0.213004	3.032955	262.832583	0.211525
2.470000	-3.357296	254.395815	0.213213	3.058726	263.323125	0.211588
2.480000	-3.301385	253.767881	0.213399	3.092853	263.759009	0.211621
2.490000	-3.238325	253.079348	0.213578	3.129859	264.091195	0.211623
2.500000	-3.175403	252.402874	0.213773	3.160141	264.292914	0.211601
2.510000	-3.120284	251.815052	0.214006	3.174759	264.367606	0.211571
2.520000	-3.077015	251.373913	0.214281	3.169440	264.347868	0.211547
2.530000	-3.043164	251.103818	0.214587	3.145413	264.284186	0.211539
2.540000	-3.010567	250.994632	0.214900	3.107345	264.227018	0.211549
2.550000	-2.970076	251.014239	0.215187	3.060851	264.209833	0.211575
2.560000	-2.917944	251.126452	0.215421	3.011607	264.240863	0.211612
2.570000	-2.860065	251.304191	0.215582	2.965674	264.306839	0.211657
2.580000	-2.811213	251.531760	0.215659	2.928861	264.385587	0.211701
2.590000	-2.789092	251.797519	0.215654	2.903802	264.460158	0.211735
2.600000	-2.805888	252.084089	0.215576	2.886202	264.527213	0.211750
2.610000	-2.861471	252.363695	0.215447	2.863904	264.596175	0.211745
2.620000	-2.941735	252.601683	0.215293	2.821529	264.680684	0.211726
2.630000	-3.023119	252.765787	0.215141	2.749572	264.787617	0.211709
2.640000	-3.081312	252.836395	0.215017	2.652696	264.909692	0.211714
2.650000	-3.100127	252.814143	0.214936	2.551025	265.025205	0.211752
2.660000	-3.076612	252.723124	0.214906	2.471947	265.104404	0.211820
2.670000	-3.020454	252.608699	0.214922	2.436214	265.118972	0.211906
2.680000	-2.948522	252.528811	0.214975	2.446469	265.050775	0.211985
2.690000	-2.877556	252.538863	0.215051	2.485339	264.897687	0.212038
2.700000	-2.818563	252.673327	0.215136	2.524302	264.675699	0.212050
2.710000	-2.775301	252.930354	0.215216	2.537952	264.416888	0.212023
2.720000	-2.746713	253.266554	0.215279	2.515607	264.162973	0.211969
2.730000	-2.730906	253.606239	0.215314	2.464913	263.955448	0.211905
2.740000	-2.727550	253.863894	0.215315	2.407397	263.825119	0.211851
2.750000	-2.737147	253.972401	0.215280	2.369643	263.784540	0.211816
2.760000	-2.758156	253.905832	0.215218	2.374147	263.825494	0.211804
2.770000	-2.784612	253.686803	0.215147	2.432047	263.921483	0.211815
2.780000	-2.806514	253.374900	0.215089	2.538657	264.033763	0.211844
2.790000	-2.813422	253.041673	0.215063	2.672920	264.119558	0.211888
2.800000	-2.799563	252.744206	0.215077	2.802317	264.141688	0.211946
2.810000	-2.767641	252.509294	0.215124	2.893420	264.078717	0.212018
2.820000	-2.728781	252.333867	0.215187	2.924997	263.933400	0.212103
2.830000	-2.697883	252.198562	0.215247	2.897665	263.735756	0.212199
2.840000	-2.686320	252.085476	0.215292	2.834434	263.537302	0.212305
2.850000	-2.695961	251.990589	0.215320	2.770860	263.395932	0.212420
2.860000	-2.718254	251.925394	0.215340	2.739430	263.355901	0.212538
2.870000	-2.739256	251.907732	0.215362	2.756174	263.431225	0.212653
2.880000	-2.747787	251.946668	0.215392	2.816045	263.600542	0.212749
2.890000	-2.741893	252.029275	0.215425	2.898194	263.816323	0.212811
2.900000	-2.729935	252.117382	0.215450	2.976813	264.024148	0.212824
2.910000	-2.726054	252.158440	0.215448	3.031173	264.183026	0.212786
