time (s)	dominant Fap (N)	dominant Fvert (N)	dominant CPap (m)	non-dominant Fap (N)	non-dominant Fvert (N)	non-dominant CPap (m)
0.000000	-1.002766	435.843194	0.215939	1.489945	304.073915	0.194909
0.010000	-0.934626	435.424956	0.215777	1.500655	304.525436	0.194976
0.020000	-0.868572	435.026833	0.215611	1.502077	304.934876	0.195016
0.030000	-0.808611	434.653729	0.215438	1.487810	305.276817	0.195012
0.040000	-0.761364	434.293218	0.215253	1.456848	305.550813	0.194959
0.050000	-0.734639	433.925523	0.215050	1.413832	305.781293	0.194864
0.060000	-0.734283	433.540346	0.214828	1.367262	306.007816	0.194747
0.070000	-0.760969	433.148725	0.214587	1.326510	306.269074	0.194633
0.080000	-0.809135	432.780769	0.214331	1.298816	306.586618	0.194540
0.090000	-0.869164	432.469273	0.214069	1.287126	306.955297	0.194476
0.100000	-0.931561	432.228635	0.213810	1.289002	307.345707	0.194434
0.110000	-0.990168	432.042061	0.213562	1.296716	307.719034	0.194396
0.120000	-1.042295	431.865519	0.213332	1.298804	308.048207	0.194340
0.130000	-1.086300	431.646884	0.213121	1.283187	308.334707	0.194249
0.140000	-1.119409	431.349479	0.212932	1.241154	308.611245	0.194121
0.150000	-1.138199	430.966579	0.212767	1.170655	308.927382	0.193969
0.160000	-1.141734	430.519445	0.212629	1.077315	309.324768	0.193810
0.170000	-1.134943	430.042094	0.212523	0.972507	309.815107	0.193661
0.180000	-1.129156	429.563485	0.212452	0.869343	310.372832	0.193530
0.190000	-1.138325	429.097198	0.212420	0.778606	310.946025	0.193417
0.200000	-1.172211	428.641830	0.212425	0.706538	311.478955	0.193316
0.210000	-1.230152	428.188562	0.212460	0.655109	311.934065	0.193223
0.220000	-1.299135	427.730310	0.212515	0.623746	312.303331	0.193140
0.230000	-1.357722	427.268920	0.212580	0.610777	312.605997	0.193074
0.240000	-1.384267	426.819294	0.212640	0.613618	312.876617	0.193032
0.250000	-1.365833	426.409660	0.212685	0.628118	313.150338	0.193017
0.260000	-1.304023	426.076135	0.212707	0.648302	313.451383	0.193028
0.270000	-1.215321	425.850271	0.212704	0.667334	313.787745	0.193051
0.280000	-1.125822	425.742071	0.212679	0.679415	314.152212	0.193072
0.290000	-1.062380	425.726279	0.212633	0.681465	314.527749	0.193075
0.300000	-1.043527	425.741899	0.212567	0.673542	314.894380	0.193055
0.310000	-1.073328	425.710211	0.212479	0.657786	315.235014	0.193015
0.320000	-1.140125	425.565843	0.212370	0.636710	315.538862	0.192967
0.330000	-1.220415	425.285632	0.212241	0.612089	315.802163	0.192927
0.340000	-1.286531	424.898727	0.212104	0.585285	316.026674	0.192907
0.350000	-1.315514	424.471207	0.211977	0.558727	316.216994	0.192909
0.360000	-1.295994	424.073616	0.211881	0.537156	316.378396	0.192923
0.370000	-1.230469	423.750032	0.211834	0.527158	316.516756	0.192934
0.380000	-1.132329	423.505517	0.211843	0.534690	316.640726	0.192925
0.390000	-1.019513	423.316261	0.211905	0.562000	316.764022	0.192891
0.400000	-0.908179	423.152325	0.212007	0.606046	316.904643	0.192836
0.410000	-0.809204	422.996656	0.212127	0.659596	317.079330	0.192777
0.420000	-0.728163	422.849620	0.212243	0.714292	317.295036	0.192733
0.430000	-0.667409	422.720042	0.212335	0.763592	317.542119	0.192714
0.440000	-0.628111	422.612244	0.212392	0.803838	317.794088	0.192718
0.450000	-0.610780	422.518327	0.212412	0.833264	318.015731	0.192734
0.460000	-0.614306	422.418929	0.212400	0.850338	318.177075	0.192752
0.470000	-0.634725	422.290075	0.212365	0.853119	318.267087	0.192763
0.480000	-0.665065	422.112273	0.212322	0.840257	318.300140	0.192770
0.490000	-0.696659	421.878838	0.212277	0.812888	318.310889	0.192779
0.500000	-0.721234	421.600831	0.212239	0.775996	318.338987	0.192791
0.510000	-0.732853	421.305663	0.212210	0.738111	318.410995	0.192804
0.520000	-0.729329	421.028084	0.212186	0.709078	318.529141	0.192801
0.530000	-0.713005	420.796657	0.212159	0.696543	318.673108	0.192768
0.540000	-0.690556	420.622889	0.212116	0.702367	318.813717	0.192698
0.550000	-0.671125	420.499395	0.212045	0.720485	318.930878	0.192597
0.560000	-0.662610	420.407640	0.211939	0.737554	319.026279	0.192488
0.570000	-0.667347	420.329398	0.211803	0.736967	319.124342	0.192398
0.580000	-0.679725	420.254176	0.211654	0.705413	319.260741	0.192351
0.590000	-0.688076	420.178507	0.211515	0.639577	319.463499	0.192355
0.600000	-0.680828	420.099390	0.211406	0.549681	319.735271	0.192400
0.610000	-0.653770	420.008907	0.211335	0.457402	320.045514	0.192466
0.620000	-0.613938	419.896598	0.211294	0.388199	320.337433	0.192528
0.630000	-0.577414	419.760195	0.211266	0.361193	320.547838	0.192566
0.640000	-0.562140	419.617408	0.211229	0.381347	320.631597	0.192568
0.650000	-0.579654	419.508306	0.211172	0.437705	320.579530	0.192534
0.660000	-0.629834	419.482679	0.211097	0.508329	320.421475	0.192470
0.670000	-0.700744	419.577077	0.211015	0.569226	320.213256	0.192389
0.680000	-0.773429	419.794084	0.210936	0.602855	320.013886	0.192303
0.690000	-0.829836	420.096207	0.210864	0.602601	319.863557	0.192226
0.700000	-0.860817	420.418586	0.210793	0.572122	319.771699	0.192166
0.710000	-0.870372	420.694503	0.210715	0.521278	319.718626	0.192130
0.720000	-0.873211	420.881313	0.210625	0.461605	319.667625	0.192116
0.730000	-0.886037	420.974971	0.210528	0.403589	319.580739	0.192121
0.740000	-0.917194	421.007531	0.210437	0.356102	319.432186	0.192137
0.750000	-0.961097	421.030399	0.210368	0.326892	319.216192	0.192158
0.760000	-1.001229	421.092366	0.210328	0.322734	318.948129	0.192182
0.770000	-1.020024	421.222546	0.210316	0.348514	318.658833	0.192208
0.780000	-1.009446	421.424170	0.210324	0.405433	318.383729	0.192239
0.790000	-0.975804	421.678758	0.210340	0.489187	318.151288	0.192272
0.800000	-0.936116	421.955426	0.210362	0.589342	317.976708	0.192300
0.810000	-0.908394	422.219351	0.210393	0.690894	317.863759	0.192315
0.820000	-0.901300	422.436389	0.210440	0.778156	317.811882	0.192312
0.830000	-0.908561	422.574906	0.210508	0.839737	317.821901	0.192293
0.840000	-0.910992	422.608307	0.210596	0.872347	317.895696	0.192268
0.850000	-0.885543	422.521040	0.210692	0.881279	318.031051	0.192248
0.860000	-0.817495	422.317288	0.210781	0.877023	318.217288	0.192240
0.870000	-0.709982	422.027291	0.210848	0.869605	318.436406	0.192243
0.880000	-0.585639	421.704524	0.210884	0.863687	318.669189	0.192252
0.890000	-0.478788	421.410500	0.210890	0.857125	318.900979	0.192260
0.900000	-0.421585	421.191943	0.210873	0.843666	319.121914	0.192265
0.910000	-0.430922	421.062116	0.210846	0.818001	319.321393	0.192264
0.920000	-0.502410	420.997964	0.210820	0.780049	319.481963	0.192252
0.930000	-0.613786	420.955935	0.210802	0.735883	319.578887	0.192221
0.940000	-0.735094	420.897658	0.210796	0.694880	319.587658	0.192163
0.950000	-0.840033	420.810812	0.210796	0.664951	319.495938	0.192076
0.960000	-0.913562	420.714311	0.210793	0.648702	319.313088	0.191970
0.970000	-0.954003	420.646721	0.210770	0.642616	319.071611	0.191862
0.980000	-0.970820	420.645793	0.210714	0.639397	318.819076	0.191776
0.990000	-0.979900	420.730610	0.210618	0.631856	318.603892	0.191728
1.000000	-0.997347	420.895306	0.210487	0.616139	318.461100	0.191720
1.010000	-1.032760	421.115946	0.210340	0.592841	318.404033	0.191742
1.020000	-1.084308	421.363963	0.210203	0.565928	318.424285	0.191775
1.030000	-1.138778	421.616029	0.210099	0.540544	318.498020	0.191796
1.040000	-1.177959	421.854809	0.210040	0.521051	318.594356	0.191794
1.050000	-1.188569	422.063890	0.210027	0.510079	318.682856	0.191764
1.060000	-1.169614	422.224915	0.210049	0.508512	318.739941	0.191712
1.070000	-1.132031	422.321108	0.210091	0.515810	318.754832	0.191652
1.080000	-1.090756	422.343547	0.210141	0.530200	318.733552	0.191602
1.090000	-1.055168	422.293086	0.210189	0.548709	318.697491	0.191578
1.100000	-1.025019	422.175293	0.210227	0.567481	318.674718	0.191591
1.110000	-0.994492	421.993251	0.210248	0.582751	318.687266	0.191640
1.120000	-0.960550	421.745944	0.210242	0.592319	318.741555	0.191708
1.130000	-0.928682	421.435128	0.210204	0.596647	318.827587	0.191771
1.140000	-0.911448	421.075272	0.210139	0.598593	318.926142	0.191803
1.150000	-0.920686	420.696917	0.210063	0.601597	319.017918	0.191789
1.160000	-0.958627	420.337900	0.209995	0.607491	319.089438	0.191732
1.170000	-1.013706	420.026439	0.209953	0.615646	319.136128	0.191649
1.180000	-1.063726	419.767335	0.209942	0.624257	319.166027	0.191568
1.190000	-1.084553	419.541475	0.209954	0.632702	319.204145	0.191518
1.200000	-1.059695	419.320027	0.209973	0.642779	319.291489	0.191520
1.210000	-0.986245	419.084876	0.209980	0.657383	319.472533	0.191578
1.220000	-0.875152	418.842829	0.209969	0.677268	319.773205	0.191681
1.230000	-0.746657	418.625288	0.209943	0.698335	320.181572	0.191800
1.240000	-0.623543	418.473772	0.209919	0.711926	320.645392	0.191900
1.250000	-0.524938	418.419316	0.209912	0.708792	321.090759	0.191955
1.260000	-0.462294	418.466297	0.209931	0.684874	321.451309	0.191959
1.270000	-0.437878	418.588426	0.209974	0.645468	321.689826	0.191931
1.280000	-0.445442	418.738717	0.210030	0.604838	321.800210	0.191900
1.290000	-0.472685	418.869188	0.210085	0.580842	321.792794	0.191893
1.300000	-0.505022	418.951830	0.210126	0.587134	321.677585	0.191917
1.310000	-0.529759	418.991112	0.210153	0.627060	321.459375	0.191960
1.320000	-0.539427	419.021280	0.210169	0.692335	321.147081	0.192000
1.330000	-0.533242	419.088990	0.210182	0.766744	320.767159	0.192018
1.340000	-0.516261	419.230324	0.210198	0.832403	320.367135	0.192012
1.350000	-0.496544	419.455345	0.210221	0.875390	320.002752	0.191993
1.360000	-0.481248	419.748936	0.210250	0.888863	319.714730	0.191974
1.370000	-0.473234	420.085694	0.210284	0.873685	319.509404	0.191967
1.380000	-0.470016	420.446946	0.210325	0.837482	319.355854	0.191971
1.390000	-0.465997	420.826954	0.210376	0.792715	319.202091	0.191981
1.400000	-0.456840	421.224487	0.210440	0.753825	319.001698	0.191989
1.410000	-0.442923	421.628061	0.210515	0.733620	318.736816	0.191990
1.420000	-0.428987	422.008540	0.210600	0.739796	318.425979	0.191987
1.430000	-0.419737	422.326622	0.210690	0.772816	318.113235	0.191985
1.440000	-0.414467	422.550675	0.210777	0.825938	317.844040	0.191990
1.450000	-0.405078	422.672764	0.210854	0.887339	317.640064	0.192007
1.460000	-0.379921	422.713565	0.210913	0.943624	317.486352	0.192034
1.470000	-0.331859	422.715847	0.210944	0.983676	317.338407	0.192061
1.480000	-0.265615	422.732428	0.210943	1.001757	317.145609	0.192078
1.490000	-0.199169	422.813905	0.210911	0.998878	316.877563	0.192073
1.500000	-0.157263	422.997691	0.210858	0.981874	316.538377	0.192042
1.510000	-0.159899	423.298832	0.210794	0.960452	316.162079	0.191985
1.520000	-0.212039	423.705148	0.210730	0.943313	315.794007	0.191910
1.530000	-0.300366	424.180377	0.210668	0.934925	315.470079	0.191828
1.540000	-0.399078	424.675930	0.210604	0.934300	315.204346	0.191757
1.550000	-0.481727	425.146573	0.210532	0.936339	314.988265	0.191711
1.560000	-0.532968	425.562481	0.210446	0.935093	314.798416	0.191702
1.570000	-0.554478	425.912578	0.210346	0.927264	314.606691	0.191729
1.580000	-0.562801	426.199966	0.210235	0.913953	314.388492	0.191777
1.590000	-0.581096	426.434977	0.210116	0.899580	314.127755	0.191817
1.600000	-0.629252	426.631451	0.209988	0.888677	313.819848	0.191818
1.610000	-0.716557	426.807621	0.209845	0.882798	313.473140	0.191758
1.620000	-0.839040	426.988238	0.209674	0.879788	313.108328	0.191630
1.630000	-0.981476	427.203190	0.209464	0.876017	312.753702	0.191447
1.640000	-1.122887	427.480430	0.209209	0.869829	312.435876	0.191238
1.650000	-1.243885	427.835540	0.208918	0.863454	312.168296	0.191036
1.660000	-1.333633	428.263250	0.208608	0.861738	311.942161	0.190869
1.670000	-1.393618	428.735823	0.208308	0.868599	311.724773	0.190751
1.680000	-1.436026	429.209877	0.208044	0.883912	311.468337	0.190679
1.690000	-1.476942	429.639137	0.207836	0.903205	311.127965	0.190639
1.700000	-1.527963	429.988309	0.207691	0.920322	310.682553	0.190610
1.710000	-1.591129	430.243434	0.207606	0.931046	310.149012	0.190576
1.720000	-1.660023	430.415963	0.207565	0.935085	309.581963	0.190528
1.730000	-1.725527	430.540127	0.207552	0.935181	309.057363	0.190470
1.740000	-1.781840	430.665043	0.207547	0.934214	308.646363	0.190409
1.750000	-1.829060	430.843618	0.207537	0.932542	308.390392	0.190355
1.760000	-1.871679	431.119874	0.207514	0.927540	308.287629	0.190312
1.770000	-1.914887	431.516145	0.207478	0.915629	308.295345	0.190285
1.780000	-1.961029	432.022962	0.207433	0.895344	308.345444	0.190276
1.790000	-2.007841	432.596555	0.207385	0.869276	308.365654	0.190289
1.800000	-2.049431	433.168560	0.207334	0.843496	308.298244	0.190332
1.810000	-2.080074	433.667629	0.207277	0.824696	308.111244	0.190405
1.820000	-2.099107	434.045209	0.207210	0.816704	307.801138	0.190502
1.830000	-2.113486	434.293558	0.207138	0.818514	307.388748	0.190610
1.840000	-2.135123	434.447038	0.207071	0.825083	306.910837	0.190705
1.850000	-2.173612	434.566497	0.207027	0.830519	306.409768	0.190767
1.860000	-2.228797	434.715348	0.207019	0.831870	305.923471	0.190785
1.870000	-2.288485	434.938959	0.207053	0.831399	305.477957	0.190762
1.880000	-2.333360	435.255069	0.207119	0.836144	305.084009	0.190715
1.890000	-2.346388	435.655323	0.207198	0.855072	304.738044	0.190668
1.900000	-2.321164	436.112362	0.207272	0.895291	304.425765	0.190637
1.910000	-2.264437	436.586582	0.207330	0.959085	304.127345	0.190625
1.920000	-2.191646	437.030690	0.207370	1.042928	303.823983	0.190625
1.930000	-2.118410	437.394499	0.207396	1.138467	303.505882	0.190621
1.940000	-2.053206	437.633072	0.207411	1.234581	303.179858	0.190601
1.950000	-1.995563	437.718383	0.207413	1.319554	302.872598	0.190562
1.960000	-1.940494	437.650336	0.207398	1.382945	302.625646	0.190514
1.970000	-1.885817	437.460812	0.207366	1.417345	302.481647	0.190477
1.980000	-1.837021	437.206328	0.207324	1.420143	302.466382	0.190471
1.990000	-1.805981	436.950353	0.207284	1.394867	302.574596	0.190508
2.000000	-1.803956	436.742489	0.207259	1.351176	302.767237	0.190587
2.010000	-1.833389	436.604316	0.207252	1.302825	302.983091	0.190692
2.020000	-1.884164	436.528464	0.207254	1.263781	303.161035	0.190796
2.030000	-1.937321	436.489984	0.207249	1.243752	303.263379	0.190874
2.040000	-1.974476	436.462351	0.207221	1.245032	303.289455	0.190913
2.050000	-1.987413	436.428993	0.207168	1.262239	303.272791	0.190913
2.060000	-1.982000	436.385534	0.207101	1.285241	303.263138	0.190889
2.070000	-1.973989	436.334289	0.207042	1.303914	303.302112	0.190857
2.080000	-1.979194	436.276633	0.207014	1.312303	303.404431	0.190832
2.090000	-2.003799	436.208748	0.207027	1.310133	303.553838	0.190817
2.100000	-2.040313	436.123100	0.207081	1.301160	303.715095	0.190811
2.110000	-2.071088	436.013919	0.207164	1.289723	303.854844	0.190809
2.120000	-2.076951	435.882244	0.207263	1.277778	303.959471	0.190806
2.130000	-2.046024	435.736078	0.207371	1.264233	304.040143	0.190804
2.140000	-1.978425	435.584169	0.207488	1.246829	304.123039	0.190804
2.150000	-1.885360	435.426552	0.207615	1.225173	304.231801	0.190809
2.160000	-1.784074	435.248183	0.207752	1.202858	304.373716	0.190819
2.170000	-1.691650	435.021118	0.207896	1.187143	304.538216	0.190830
2.180000	-1.620253	434.715633	0.208039	1.186147	304.708050	0.190841
2.190000	-1.574903	434.314864	0.208179	1.204911	304.875368	0.190851
2.200000	-1.553328	433.825295	0.208318	1.242306	305.052223	0.190866
2.210000	-1.547049	433.278185	0.208464	1.290244	305.268901	0.190895
2.220000	-1.543426	432.722145	0.208627	1.335623	305.561215	0.190944
2.230000	-1.528982	432.210586	0.208807	1.364315	305.954253	0.191013
2.240000	-1.493949	431.788016	0.208997	1.365682	306.451315	0.191090
2.250000	-1.436603	431.478034	0.209184	1.335759	307.032479	0.191155
2.260000	-1.364955	431.275530	0.209353	1.277852	307.660790	0.191186
2.270000	-1.293970	431.146327	0.209497	1.200582	308.290451	0.191176
2.280000	-1.239039	431.036997	0.209615	1.114747	308.873278	0.191134
2.290000	-1.208975	430.893924	0.209718	1.030658	309.364571	0.191086
2.300000	-1.202451	430.684989	0.209818	0.956782	309.731903	0.191059
2.310000	-1.209758	430.413639	0.209933	0.899404	309.966851	0.191071
2.320000	-1.218651	430.117115	0.210073	0.862680	310.093527	0.191121
2.330000	-1.220817	429.848158	0.210240	0.848656	310.165423	0.191195
2.340000	-1.215363	429.648312	0.210426	0.857186	310.247428	0.191271
2.350000	-1.207520	429.525688	0.210616	0.885662	310.389957	0.191330
2.360000	-1.203557	429.448216	0.210788	0.928489	310.609171	0.191363
2.370000	-1.205194	429.355867	0.210927	0.976660	310.885087	0.191377
2.380000	-1.207175	429.186144	0.211028	1.018337	311.178459	0.191387
2.390000	-1.199660	428.900645	0.211097	1.041287	311.455244	0.191412
2.400000	-1.173873	428.500120	0.211154	1.036929	311.703082	0.191465
2.410000	-1.127288	428.021549	0.211221	1.004262	311.930770	0.191547
2.420000	-1.065170	427.520294	0.211314	0.951261	312.153948	0.191645
2.430000	-0.997987	427.047929	0.211438	0.892303	312.379183	0.191731
2.440000	-0.936874	426.637549	0.211582	0.842378	312.598216	0.191781
2.450000	-0.889934	426.302410	0.211729	0.810906	312.795539	0.191785
2.460000	-0.860780	426.044809	0.211858	0.798432	312.962409	0.191749
2.470000	-0.848979	425.866267	0.211960	0.797959	313.106180	0.191702
2.480000	-0.851432	425.770957	0.212040	0.800005	313.248022	0.191673
2.490000	-0.864056	425.760590	0.212114	0.798350	313.411147	0.191684
2.500000	-0.883400	425.825454	0.212201	0.793217	313.608407	0.191740
2.510000	-0.907484	425.938643	0.212318	0.790425	313.837843	0.191832
2.520000	-0.935115	426.058038	0.212467	0.797589	314.088136	0.191947
2.530000	-0.963978	426.135600	0.212638	0.819972	314.348479	0.192074
2.540000	-0.989070	426.129302	0.212813	0.858311	314.614668	0.192214
2.550000	-1.003122	426.012023	0.212972	0.909369	314.886710	0.192372
2.560000	-0.999174	425.774314	0.213102	0.968338	315.160381	0.192546
2.570000	-0.973846	425.422119	0.213200	1.031308	315.420770	0.192726
2.580000	-0.929405	424.973042	0.213273	1.096255	315.645580	0.192890
2.590000	-0.873454	424.453918	0.213335	1.162054	315.819397	0.193021
2.600000	-0.816111	423.899416	0.213401	1.226519	315.951243	0.193109
2.610000	-0.765639	423.349299	0.213483	1.285321	316.082990	0.193165
2.620000	-0.724548	422.842597	0.213588	1.333033	316.279752	0.193211
2.630000	-0.688562	422.409513	0.213717	1.365874	316.603647	0.193272
2.640000	-0.649529	422.063966	0.213866	1.384198	317.083184	0.193363
2.650000	-0.600721	421.799959	0.214028	1.392740	317.694897	0.193485
2.660000	-0.541125	421.593778	0.214193	1.398175	318.368297	0.193620
2.670000	-0.476050	421.412039	0.214348	1.405382	319.012478	0.193746
2.680000	-0.414194	421.223083	0.214486	1.414711	319.550815	0.193841
2.690000	-0.363499	421.006955	0.214606	1.421909	319.946739	0.193893
2.700000	-0.328211	420.759242	0.214712	1.420814	320.210343	0.193904
2.710000	-0.308028	420.487380	0.214811	1.407370	320.386489	0.193884
2.720000	-0.298848	420.202788	0.214911	1.382673	320.532715	0.193849
2.730000	-0.294246	419.914291	0.215018	1.353202	320.696664	0.193816
2.740000	-0.286918	419.625847	0.215132	1.327823	320.900540	0.193800
2.750000	-0.269501	419.337465	0.215248	1.313069	321.137170	0.193806
2.760000	-0.234576	419.046734	0.215365	1.309290	321.379095	0.193835
2.770000	-0.174630	418.750408	0.215481	1.309979	321.597214	0.193878
2.780000	-0.083598	418.447458	0.215606	1.304918	321.779974	0.193921
2.790000	0.039188	418.143635	0.215751	1.285669	321.941699	0.193958
2.800000	0.184345	417.854382	0.215928	1.250563	322.113441	0.193986
2.810000	0.331092	417.602180	0.216142	1.206480	322.320453	0.194010
2.820000	0.452409	417.408042	0.216384	1.166344	322.560153	0.194040
2.830000	0.525781	417.281749	0.216636	1.143418	322.795575	0.194080
2.840000	0.544061	417.217034	0.216874	1.145192	322.970118	0.194128
2.850000	0.519965	417.194867	0.217077	1.169920	323.036021	0.194174
2.860000	0.481078	417.193001	0.217234	1.207554	322.980768	0.194211
2.870000	0.457838	417.196515	0.217349	1.244537	322.837330	0.194230
2.880000	0.470814	417.203693	0.217434	1.269881	322.673563	0.194232
2.890000	0.523628	417.223872	0.217502	1.279391	322.566371	0.194220
2.900000	0.604226	417.267866	0.217565	1.276213	322.572318	0.194201
2.910000	0.692544	417.335932	0.217627	1.268004	322.706649	0.194180
