time (s)	dominant Fap (N)	dominant Fvert (N)	dominant CPap (m)	non-dominant Fap (N)	non-dominant Fvert (N)	non-dominant CPap (m)
0.000000	-1.881175	251.126926	0.221620	2.874757	265.423842	0.209641
0.010000	-1.724938	251.213721	0.221926	2.744609	265.186405	0.209593
0.020000	-1.593871	251.297217	0.222232	2.621401	264.960214	0.209584
0.030000	-1.500453	251.369999	0.222538	2.512909	264.758773	0.209643
0.040000	-1.439718	251.420843	0.222843	2.428264	264.597154	0.209782
0.050000	-1.394560	251.440943	0.223144	2.376837	264.488908	0.209998
0.060000	-1.347009	251.433419	0.223436	2.365927	264.442126	0.210276
0.070000	-1.288054	251.419768	0.223713	2.398279	264.457173	0.210593
0.080000	-1.220590	251.437210	0.223966	2.470649	264.527291	0.210930
0.090000	-1.155134	251.525764	0.224184	2.574025	264.641226	0.211269
0.100000	-1.102263	251.710416	0.224358	2.695178	264.786021	0.211596
0.110000	-1.066722	251.987136	0.224482	2.818797	264.948701	0.211901
0.120000	-1.045947	252.319530	0.224555	2.929836	265.116860	0.212173
0.130000	-1.032651	252.647473	0.224584	3.016368	265.278928	0.212407
0.140000	-1.019065	252.903895	0.224582	3.073162	265.424692	0.212600
0.150000	-1.000287	253.033049	0.224572	3.104899	265.546086	0.212755
0.160000	-0.975336	253.003350	0.224574	3.126511	265.637896	0.212879
0.170000	-0.946135	252.810352	0.224607	3.158504	265.698174	0.212980
0.180000	-0.915764	252.470463	0.224680	3.217863	265.728591	0.213064
0.190000	-0.887392	252.011228	0.224788	3.308647	265.735171	0.213134
0.200000	-0.864244	251.465358	0.224916	3.417669	265.729311	0.213190
0.210000	-0.849786	250.871278	0.225046	3.518292	265.728080	0.213230
0.220000	-0.847037	250.276114	0.225162	3.580878	265.752342	0.213254
0.230000	-0.856938	249.734075	0.225252	3.584891	265.822173	0.213264
0.240000	-0.876913	249.297025	0.225304	3.527235	265.950813	0.213262
0.250000	-0.900998	249.001167	0.225304	3.423749	266.139869	0.213252
0.260000	-0.921939	248.857421	0.225241	3.303749	266.378475	0.213236
0.270000	-0.934293	248.850372	0.225108	3.199788	266.647324	0.213214
0.280000	-0.936917	248.944721	0.224912	3.136157	266.925750	0.213184
0.290000	-0.933513	249.094329	0.224675	3.120478	267.198153	0.213141
0.300000	-0.930879	249.249534	0.224427	3.142281	267.456384	0.213078
0.310000	-0.935682	249.362023	0.224191	3.179771	267.697378	0.212990
0.320000	-0.951446	249.389725	0.223975	3.211586	267.918516	0.212870
0.330000	-0.977506	249.304210	0.223767	3.227051	268.114486	0.212715
0.340000	-1.010549	249.099681	0.223541	3.228999	268.278001	0.212524
0.350000	-1.047626	248.798346	0.223275	3.227919	268.403823	0.212304
0.360000	-1.088455	248.446357	0.222963	3.231764	268.493233	0.212065
0.370000	-1.135306	248.099471	0.222621	3.238334	268.556004	0.211816
0.380000	-1.190526	247.804906	0.222277	3.235114	268.608533	0.211570
0.390000	-1.253453	247.589261	0.221958	3.206508	268.668798	0.211335
0.400000	-1.318931	247.458353	0.221679	3.143931	268.750008	0.211112
0.410000	-1.378607	247.406223	0.221438	3.052815	268.855032	0.210904
0.420000	-1.424467	247.424497	0.221225	2.952380	268.973512	0.210706
0.430000	-1.452707	247.504562	0.221032	2.867954	269.083180	0.210514
0.440000	-1.465777	247.632381	0.220856	2.819504	269.156229	0.210323
0.450000	-1.471329	247.782763	0.220702	2.812314	269.169759	0.210130
0.460000	-1.478490	247.920919	0.220572	2.834873	269.116703	0.209933
0.470000	-1.493262	248.013421	0.220466	2.865202	269.011927	0.209738
0.480000	-1.515385	248.042830	0.220375	2.882019	268.889251	0.209551
0.490000	-1.538281	248.016232	0.220292	2.874334	268.789410	0.209378
0.500000	-1.552092	247.960925	0.220207	2.844410	268.744252	0.209220
0.510000	-1.548307	247.908701	0.220119	2.803510	268.765023	0.209070
0.520000	-1.523813	247.877657	0.220025	2.764225	268.840428	0.208914
0.530000	-1.482617	247.862164	0.219919	2.734365	268.944380	0.208741
0.540000	-1.434693	247.836729	0.219792	2.715099	269.048093	0.208538
0.550000	-1.392576	247.771800	0.219634	2.702753	269.129860	0.208305
0.560000	-1.367164	247.653639	0.219444	2.691900	269.178783	0.208048
0.570000	-1.364377	247.498272	0.219229	2.677828	269.192894	0.207777
0.580000	-1.384057	247.351534	0.219008	2.657688	269.174633	0.207503
0.590000	-1.421528	247.273095	0.218796	2.630512	269.126789	0.207231
0.600000	-1.471012	247.310592	0.218597	2.596503	269.050711	0.206960
0.610000	-1.529047	247.476537	0.218399	2.556056	268.947051	0.206678
0.620000	-1.596014	247.740656	0.218171	2.508977	268.817926	0.206371
0.630000	-1.674924	248.042303	0.217882	2.454314	268.668688	0.206023
0.640000	-1.768288	248.316207	0.217515	2.391083	268.508077	0.205628
0.650000	-1.875042	248.517466	0.217071	2.319835	268.346984	0.205187
0.660000	-1.989346	248.633264	0.216571	2.244348	268.196962	0.204711
0.670000	-2.101808	248.677667	0.216048	2.172011	268.069092	0.204219
0.680000	-2.202178	248.675773	0.215536	2.111404	267.972671	0.203728
0.690000	-2.281942	248.648383	0.215062	2.067115	267.913106	0.203249
0.700000	-2.335873	248.605835	0.214643	2.034383	267.889652	0.202784
0.710000	-2.362578	248.552041	0.214285	1.997677	267.894534	0.202326
0.720000	-2.364520	248.492565	0.213990	1.935876	267.914431	0.201865
0.730000	-2.347684	248.438705	0.213751	1.832561	267.933969	0.201396
0.740000	-2.320552	248.404172	0.213559	1.685906	267.940159	0.200916
0.750000	-2.292170	248.397965	0.213398	1.511951	267.926685	0.200428
0.760000	-2.269758	248.420599	0.213248	1.338523	267.896774	0.199934
0.770000	-2.257003	248.467953	0.213092	1.192582	267.862801	0.199441
0.780000	-2.254089	248.540019	0.212917	1.087762	267.840928	0.198954
0.790000	-2.259490	248.646701	0.212721	1.018971	267.841100	0.198483
0.800000	-2.272367	248.804280	0.212510	0.966954	267.856081	0.198040
0.810000	-2.293884	249.023488	0.212291	0.910108	267.855881	0.197633
0.820000	-2.326498	249.297534	0.212065	0.836739	267.793231	0.197261
0.830000	-2.371713	249.599479	0.211824	0.751009	267.620681	0.196919
0.840000	-2.427976	249.892161	0.211554	0.669843	267.312529	0.196593
0.850000	-2.490451	250.145133	0.211241	0.613321	266.879969	0.196276
0.860000	-2.553279	250.348425	0.210880	0.594280	266.369762	0.195967
0.870000	-2.613276	250.515457	0.210478	0.612359	265.845440	0.195674
0.880000	-2.673007	250.674585	0.210051	0.654608	265.360376	0.195403
0.890000	-2.741320	250.855567	0.209609	0.701200	264.937427	0.195162
0.900000	-2.830682	251.079238	0.209158	0.732878	264.566521	0.194948
0.910000	-2.952175	251.355165	0.208685	0.737027	264.221248	0.194757
0.920000	-3.109995	251.685803	0.208173	0.711014	263.884059	0.194582
0.930000	-3.297533	252.071032	0.207606	0.662876	263.564080	0.194420
0.940000	-3.496765	252.507309	0.206978	0.609632	263.295744	0.194271
0.950000	-3.681807	252.981010	0.206304	0.572912	263.118440	0.194141
0.960000	-3.826121	253.461904	0.205616	0.571782	263.049568	0.194030
0.970000	-3.911151	253.904834	0.204960	0.614280	263.067727	0.193933
0.980000	-3.932947	254.262850	0.204384	0.691280	263.116541	0.193838
0.990000	-3.903471	254.506258	0.203929	0.776836	263.127480	0.193725
1.000000	-3.845238	254.636046	0.203628	0.836892	263.049726	0.193579
1.010000	-3.781208	254.682015	0.203496	0.843940	262.872251	0.193392
1.020000	-3.724694	254.685167	0.203531	0.791304	262.627923	0.193172
1.030000	-3.674567	254.674154	0.203710	0.699906	262.378259	0.192946
1.040000	-3.618418	254.650142	0.203993	0.613457	262.186227	0.192756
1.050000	-3.541764	254.590054	0.204334	0.583548	262.089545	0.192651
1.060000	-3.437800	254.467305	0.204683	0.650809	262.086306	0.192675
1.070000	-3.311930	254.278327	0.205008	0.829775	262.138421	0.192855
1.080000	-3.178715	254.059079	0.205302	1.103053	262.189776	0.193198
1.090000	-3.053586	253.880770	0.205580	1.426544	262.189973	0.193686
1.100000	-2.944749	253.825287	0.205871	1.743645	262.113834	0.194282
1.110000	-2.850145	253.951278	0.206207	2.003389	261.970121	0.194942
1.120000	-2.760908	254.266213	0.206606	2.176087	261.797378	0.195623
1.130000	-2.668670	254.716729	0.207063	2.260640	261.648735	0.196291
1.140000	-2.572007	255.201973	0.207556	2.280894	261.571055	0.196920
1.150000	-2.478201	255.605700	0.208050	2.273058	261.586358	0.197491
1.160000	-2.399514	255.835474	0.208513	2.269999	261.683286	0.197985
1.170000	-2.346288	255.853627	0.208927	2.289094	261.822431	0.198388
1.180000	-2.320611	255.686987	0.209294	2.328115	261.952982	0.198694
1.190000	-2.313718	255.411016	0.209632	2.369952	262.032830	0.198912
1.200000	-2.308251	255.115668	0.209963	2.393725	262.043194	0.199067
1.210000	-2.284393	254.868999	0.210299	2.387617	261.992575	0.199196
1.220000	-2.227374	254.695279	0.210640	2.357782	261.910574	0.199336
1.230000	-2.133442	254.576401	0.210970	2.328417	261.836068	0.199509
1.240000	-2.011954	254.473242	0.211273	2.331381	261.804501	0.199717
1.250000	-1.882588	254.354188	0.211533	2.389207	261.837291	0.199945
1.260000	-1.768442	254.215988	0.211747	2.500034	261.935343	0.200165
1.270000	-1.687569	254.087403	0.211921	2.633561	262.078867	0.200348
1.280000	-1.646429	254.015368	0.212059	2.742021	262.234840	0.200472
1.290000	-1.638252	254.041729	0.212160	2.781817	262.369854	0.200522
1.300000	-1.647253	254.182468	0.212216	2.734765	262.461837	0.200495
1.310000	-1.656896	254.419374	0.212210	2.617380	262.503686	0.200398
1.320000	-1.658383	254.707613	0.212135	2.472955	262.497195	0.200244
1.330000	-1.655292	254.995026	0.211990	2.350746	262.443047	0.200049
1.340000	-1.662051	255.243811	0.211788	2.283560	262.335664	0.199831
1.350000	-1.696788	255.444459	0.211550	2.275338	262.167210	0.199606
1.360000	-1.771885	255.615589	0.211295	2.304035	261.936809	0.199391
1.370000	-1.886727	255.789762	0.211038	2.336396	261.656474	0.199199
1.380000	-2.026145	255.991937	0.210787	2.345487	261.348672	0.199036
1.390000	-2.165243	256.221212	0.210546	2.321865	261.038361	0.198903
1.400000	-2.278150	256.445927	0.210322	2.274081	260.746900	0.198794
1.410000	-2.346610	256.616449	0.210125	2.220108	260.492268	0.198701
1.420000	-2.364866	256.690685	0.209967	2.175385	260.292891	0.198616
1.430000	-2.339561	256.659168	0.209864	2.143938	260.168505	0.198533
1.440000	-2.285721	256.554896	0.209826	2.116856	260.134439	0.198455
1.450000	-2.221050	256.440757	0.209852	2.078514	260.192321	0.198384
1.460000	-2.160632	256.380637	0.209931	2.016809	260.324317	0.198322
1.470000	-2.113402	256.410667	0.210036	1.931516	260.495919	0.198265
1.480000	-2.081206	256.526893	0.210134	1.836075	260.666036	0.198204
1.490000	-2.060736	256.694797	0.210193	1.752226	260.798054	0.198126
1.500000	-2.047626	256.872226	0.210190	1.701156	260.865829	0.198017
1.510000	-2.040712	257.030216	0.210119	1.696173	260.853525	0.197871
1.520000	-2.043849	257.160011	0.209992	1.739826	260.753085	0.197691
1.530000	-2.063821	257.265346	0.209833	1.824891	260.563804	0.197488
1.540000	-2.105305	257.348703	0.209673	1.936704	260.295160	0.197281
1.550000	-2.165960	257.402704	0.209540	2.055095	259.970604	0.197095
1.560000	-2.234754	257.412591	0.209447	2.156386	259.628957	0.196952
1.570000	-2.294727	257.367335	0.209396	2.217114	259.321098	0.196874
1.580000	-2.328794	257.271144	0.209374	2.220188	259.100908	0.196874
1.590000	-2.325791	257.147522	0.209363	2.161809	259.011012	0.196953
1.600000	-2.284231	257.033385	0.209347	2.055815	259.066709	0.197097
1.610000	-2.212729	256.966785	0.209312	1.932421	259.244871	0.197276
1.620000	-2.127528	256.974423	0.209255	1.830537	259.485369	0.197452
1.630000	-2.048357	257.063855	0.209172	1.785770	259.708085	0.197581
1.640000	-1.993846	257.222376	0.209068	1.818430	259.840324	0.197635
1.650000	-1.977474	257.422332	0.208943	1.926213	259.842493	0.197605
1.660000	-2.004854	257.630844	0.208801	2.084489	259.719626	0.197505
1.670000	-2.072932	257.820242	0.208648	2.253999	259.513461	0.197366
1.680000	-2.171249	257.974650	0.208488	2.392896	259.280048	0.197223
1.690000	-2.284816	258.090072	0.208325	2.468859	259.064945	0.197106
1.700000	-2.397766	258.169486	0.208154	2.467549	258.887925	0.197027
1.710000	-2.496922	258.218040	0.207963	2.395342	258.742634	0.196979
1.720000	-2.574642	258.242830	0.207736	2.275879	258.608490	0.196948
1.730000	-2.630512	258.257039	0.207460	2.141571	258.466910	0.196913
1.740000	-2.671397	258.283227	0.207124	2.022947	258.313673	0.196864
1.750000	-2.709468	258.349876	0.206729	1.940070	258.162437	0.196799
1.760000	-2.758396	258.479952	0.206282	1.899680	258.038709	0.196723
1.770000	-2.828926	258.676854	0.205796	1.898535	257.967439	0.196638
1.780000	-2.925687	258.916530	0.205288	1.929360	257.959960	0.196542
1.790000	-3.046664	259.152241	0.204772	1.984302	258.006277	0.196423
1.800000	-3.185157	259.331790	0.204263	2.053562	258.076209	0.196266
1.810000	-3.332558	259.419886	0.203773	2.121798	258.128565	0.196059
1.820000	-3.480009	259.414786	0.203316	2.167586	258.124090	0.195805
1.830000	-3.618242	259.350469	0.202909	2.168980	258.037092	0.195515
1.840000	-3.736659	259.282839	0.202574	2.112896	257.862054	0.195215
1.850000	-3.823483	259.267094	0.202334	2.002254	257.613528	0.194930
1.860000	-3.868033	259.338298	0.202208	1.855804	257.319515	0.194681
1.870000	-3.864365	259.504673	0.202201	1.700279	257.010865	0.194474
1.880000	-3.814205	259.754503	0.202302	1.559178	256.711374	0.194299
1.890000	-3.727295	260.068858	0.202485	1.444090	256.433251	0.194133
1.900000	-3.618683	260.430027	0.202712	1.352746	256.179222	0.193954
1.910000	-3.504179	260.821113	0.202941	1.274312	255.948144	0.193748
1.920000	-3.396008	261.220590	0.203135	1.198701	255.739442	0.193516
1.930000	-3.300358	261.599733	0.203272	1.124432	255.554217	0.193275
1.940000	-3.217498	261.927744	0.203346	1.060410	255.394420	0.193054
1.950000	-3.144003	262.182294	0.203366	1.020727	255.262220	0.192880
1.960000	-3.075854	262.358299	0.203352	1.016081	255.159462	0.192778
1.970000	-3.011027	262.468624	0.203325	1.047285	255.085292	0.192760
1.980000	-2.950537	262.535824	0.203302	1.104575	255.031557	0.192827
1.990000	-2.897664	262.579673	0.203295	1.172606	254.979290	0.192963
2.000000	-2.856010	262.607526	0.203311	1.238041	254.901329	0.193149
2.010000	-2.827528	262.612667	0.203351	1.295751	254.772901	0.193365
2.020000	-2.811580	262.581300	0.203417	1.350611	254.585827	0.193602
2.030000	-2.805267	262.504070	0.203510	1.413817	254.357979	0.193860
2.040000	-2.804546	262.385445	0.203630	1.495110	254.131532	0.194148
2.050000	-2.805445	262.245413	0.203774	1.594722	253.959933	0.194474
2.060000	-2.805158	262.112570	0.203932	1.699673	253.889519	0.194835
2.070000	-2.803187	262.012935	0.204087	1.787248	253.943628	0.195210
2.080000	-2.802516	261.961209	0.204219	1.834441	254.114942	0.195569
2.090000	-2.810029	261.958877	0.204307	1.828511	254.367913	0.195877
2.100000	-2.834979	261.998344	0.204342	1.773101	254.649421	0.196105
2.110000	-2.885155	262.068267	0.204325	1.687089	254.903079	0.196243
2.120000	-2.962208	262.155611	0.204271	1.597416	255.081736	0.196295
2.130000	-3.058932	262.243947	0.204206	1.529897	255.154626	0.196280
2.140000	-3.160679	262.311541	0.204156	1.502158	255.109552	0.196227
2.150000	-3.250625	262.333260	0.204144	1.520839	254.953762	0.196169
2.160000	-3.316012	262.287263	0.204181	1.582713	254.716505	0.196140
2.170000	-3.351917	262.163776	0.204266	1.677752	254.451568	0.196171
2.180000	-3.360890	261.971466	0.204386	1.792167	254.233314	0.196281
2.190000	-3.349579	261.737843	0.204524	1.910595	254.140221	0.196470
2.200000	-3.325100	261.502460	0.204665	2.017799	254.227367	0.196718
2.210000	-3.293312	261.304416	0.204806	2.100661	254.499402	0.196991
2.220000	-3.259165	261.168350	0.204959	2.150753	254.900347	0.197254
2.230000	-3.227562	261.094834	0.205149	2.166992	255.330637	0.197491
2.240000	-3.203024	261.060357	0.205404	2.157292	255.686933	0.197713
2.250000	-3.187904	261.028043	0.205744	2.137973	255.905344	0.197958
2.260000	-3.180391	260.964528	0.206175	2.130034	255.984369	0.198271
2.270000	-3.174020	260.854709	0.206681	2.152585	255.974599	0.198683
2.280000	-3.159367	260.707160	0.207236	2.215426	255.942241	0.199190
2.290000	-3.127110	260.548362	0.207808	2.314197	255.929500	0.199757
2.300000	-3.070789	260.410135	0.208375	2.431212	255.935612	0.200330
2.310000	-2.988080	260.318035	0.208927	2.542777	255.927685	0.200860
2.320000	-2.880537	260.286630	0.209460	2.630127	255.871026	0.201326
2.330000	-2.752686	260.321759	0.209971	2.688523	255.757514	0.201734
2.340000	-2.611289	260.424411	0.210453	2.729345	255.614167	0.202110
2.350000	-2.464873	260.590271	0.210892	2.773685	255.488475	0.202478
2.360000	-2.322869	260.804022	0.211273	2.840819	255.422085	0.202847
2.370000	-2.193849	261.033873	0.211588	2.937998	255.430477	0.203205
2.380000	-2.083269	261.233536	0.211844	3.056994	255.500514	0.203527
2.390000	-1.991962	261.354255	0.212066	3.178573	255.605162	0.203791
2.400000	-1.916497	261.362034	0.212287	3.281424	255.724061	0.203989
2.410000	-1.851406	261.250802	0.212538	3.350150	255.856481	0.204128
2.420000	-1.792141	261.043807	0.212832	3.378614	256.019584	0.204229
2.430000	-1.737317	260.781776	0.213154	3.368504	256.234705	0.204306
2.440000	-1.689554	260.503770	0.213470	3.325707	256.510980	0.204371
2.450000	-1.654996	260.231021	0.213733	3.257420	256.836006	0.204419
2.460000	-1.641868	259.962683	0.213904	3.171163	257.178244	0.204443
2.470000	-1.658202	259.685251	0.213965	3.074876	257.499260	0.204433
2.480000	-1.708894	259.388668	0.213929	2.976539	257.769113	0.204386
2.490000	-1.792904	259.077651	0.213828	2.882733	257.977399	0.204302
2.500000	-1.902118	258.770325	0.213706	2.797024	258.135474	0.204189
2.510000	-2.023029	258.485287	0.213599	2.719609	258.270180	0.204055
2.520000	-2.140889	258.226415	0.213525	2.648751	258.413214	0.203910
2.530000	-2.244223	257.976207	0.213483	2.583003	258.591108	0.203766
2.540000	-2.327215	257.702667	0.213464	2.522696	258.819123	0.203634
2.550000	-2.388880	257.376057	0.213459	2.470004	259.099950	0.203529
2.560000	-2.430203	256.985631	0.213467	2.428263	259.426650	0.203468
2.570000	-2.451649	256.546413	0.213497	2.401698	259.788596	0.203464
2.580000	-2.452790	256.091921	0.213559	2.395918	260.178479	0.203529
2.590000	-2.433885	255.657059	0.213657	2.418262	260.597274	0.203668
2.600000	-2.397643	255.261134	0.213791	2.476515	261.053616	0.203877
2.610000	-2.349451	254.900632	0.213954	2.575323	261.555907	0.204144
2.620000	-2.295738	254.555307	0.214136	2.711431	262.099813	0.204447
2.630000	-2.241658	254.203162	0.214325	2.870491	262.658216	0.204755
2.640000	-2.189693	253.834981	0.214506	3.028284	263.181418	0.205036
2.650000	-2.139978	253.460158	0.214666	3.157311	263.610772	0.205260
2.660000	-2.091945	253.101761	0.214790	3.236596	263.901073	0.205408
2.670000	-2.046117	252.785594	0.214872	3.260184	264.041102	0.205479
2.680000	-2.004945	252.530694	0.214915	3.239811	264.061758	0.205484
2.690000	-1.972187	252.345830	0.214930	3.199951	264.026996	0.205448
2.700000	-1.951199	252.230970	0.214936	3.167213	264.010768	0.205398
2.710000	-1.943192	252.179260	0.214943	3.158773	264.069261	0.205356
2.720000	-1.946493	252.176404	0.214955	3.174979	264.219966	0.205331
2.730000	-1.957287	252.198753	0.214960	3.199456	264.436733	0.205313
2.740000	-1.971401	252.214573	0.214941	3.206903	264.663393	0.205285
2.750000	-1.986207	252.191494	0.214886	3.175444	264.839718	0.205227
2.760000	-2.001680	252.108309	0.214797	3.098120	264.927441	0.205129
2.770000	-2.020109	251.964922	0.214690	2.988141	264.924545	0.204998
2.780000	-2.044587	251.784120	0.214595	2.875071	264.863007	0.204862
2.790000	-2.077050	251.603005	0.214542	2.793213	264.793520	0.204757
2.800000	-2.116916	251.457564	0.214549	2.767304	264.765487	0.204717
2.810000	-2.161067	251.367470	0.214619	2.802071	264.810382	0.204762
2.820000	-2.205046	251.327889	0.214736	2.880413	264.933434	0.204886
2.830000	-2.244494	251.311509	0.214879	2.970789	265.115183	0.205063
2.840000	-2.275802	251.279397	0.215026	3.040070	265.321759	0.205252
2.850000	-2.295829	251.195757	0.215162	3.065854	265.520582	0.205416
2.860000	-2.301636	251.040540	0.215274	3.042948	265.696056	0.205525
2.870000	-2.291293	250.815041	0.215349	2.981776	265.858684	0.205572
2.880000	-2.265757	250.538428	0.215372	2.900360	266.042377	0.205566
2.890000	-2.230440	250.236864	0.215328	2.814490	266.289368	0.205527
2.900000	-2.194707	249.930396	0.215211	2.731320	266.628340	0.205477
2.910000	-2.168718	249.624326	0.215027	2.649381	267.055773	0.205429
