time (s)	dominant Fap (N)	dominant Fvert (N)	dominant CPap (m)	non-dominant Fap (N)	non-dominant Fvert (N)	non-dominant CPap (m)
0.000000	-8.456853	341.346865	0.232649	7.378537	254.169054	0.251140
0.010000	-8.540664	340.985088	0.232451	7.393680	254.101140	0.251366
0.020000	-8.616146	340.645510	0.232267	7.409998	254.066771	0.251547
0.030000	-8.674569	340.327018	0.232105	7.424732	254.095855	0.251655
0.040000	-8.707331	340.004616	0.231965	7.430647	254.208001	0.251688
0.050000	-8.707372	339.649068	0.231843	7.420025	254.411138	0.251667
0.060000	-8.671339	339.252245	0.231737	7.391155	254.702702	0.251623
0.070000	-8.601533	338.837260	0.231650	7.353020	255.072140	0.251582
0.080000	-8.506395	338.444944	0.231591	7.324477	255.503593	0.251556
0.090000	-8.398815	338.106419	0.231569	7.327414	255.978535	0.251539
0.100000	-8.292636	337.820965	0.231585	7.377023	256.479106	0.251516
0.110000	-8.198773	337.553197	0.231630	7.474056	256.992690	0.251467
0.120000	-8.122563	337.249866	0.231686	7.602769	257.516298	0.251380
0.130000	-8.063325	336.864760	0.231728	7.735432	258.056990	0.251254
0.140000	-8.015997	336.377435	0.231737	7.841288	258.625167	0.251103
0.150000	-7.973846	335.797666	0.231700	7.896251	259.222412	0.250949
0.160000	-7.930952	335.157186	0.231617	7.889681	259.831513	0.250811
0.170000	-7.883537	334.496851	0.231504	7.826063	260.417492	0.250699
0.180000	-7.830002	333.857060	0.231384	7.721592	260.942160	0.250605
0.190000	-7.770315	333.273744	0.231280	7.597625	261.385003	0.250512
0.200000	-7.705607	332.776648	0.231210	7.474008	261.757490	0.250396
0.210000	-7.638524	332.385332	0.231178	7.364866	262.100847	0.250245
0.220000	-7.574038	332.101885	0.231172	7.277751	262.466848	0.250061
0.230000	-7.519859	331.904273	0.231171	7.214993	262.891077	0.249862
0.240000	-7.485548	331.746355	0.231148	7.175149	263.372755	0.249673
0.250000	-7.480140	331.568136	0.231084	7.153084	263.872334	0.249514
0.260000	-7.509023	331.314343	0.230970	7.139156	264.329263	0.249397
0.270000	-7.571426	330.954347	0.230809	7.119591	264.691616	0.249317
0.280000	-7.659707	330.494624	0.230616	7.079949	264.942253	0.249264
0.290000	-7.760707	329.977639	0.230413	7.011344	265.107441	0.249229
0.300000	-7.858570	329.467006	0.230222	6.916199	265.243516	0.249205
0.310000	-7.938084	329.025174	0.230061	6.809470	265.409612	0.249192
0.320000	-7.987854	328.693362	0.229940	6.713579	265.641725	0.249192
0.330000	-8.002843	328.481847	0.229861	6.649427	265.940833	0.249206
0.340000	-7.985710	328.373076	0.229816	6.628502	266.278263	0.249227
0.350000	-7.946190	328.333755	0.229794	6.650154	266.612443	0.249246
0.360000	-7.898168	328.328810	0.229785	6.704450	266.907760	0.249255
0.370000	-7.855199	328.331018	0.229783	6.777528	267.147876	0.249250
0.380000	-7.826318	328.323653	0.229785	6.855739	267.339094	0.249235
0.390000	-7.814061	328.297299	0.229793	6.926896	267.502592	0.249217
0.400000	-7.815449	328.244448	0.229808	6.979747	267.658381	0.249204
0.410000	-7.824995	328.156149	0.229826	7.004073	267.808613	0.249196
0.420000	-7.837762	328.023490	0.229837	6.992732	267.930194	0.249191
0.430000	-7.850891	327.843661	0.229829	6.944822	267.983125	0.249185
0.440000	-7.863381	327.627163	0.229794	6.867649	267.931915	0.249174
0.450000	-7.875095	327.401612	0.229734	6.775697	267.768329	0.249160
0.460000	-7.886121	327.209152	0.229660	6.686611	267.521576	0.249144
0.470000	-7.896866	327.097508	0.229591	6.615966	267.249223	0.249127
0.480000	-7.908486	327.107159	0.229544	6.573089	267.013992	0.249108
0.490000	-7.923006	327.258299	0.229525	6.559567	266.859745	0.249082
0.500000	-7.942778	327.541580	0.229530	6.570882	266.798910	0.249047
0.510000	-7.969281	327.916575	0.229541	6.600210	266.815211	0.249004
0.520000	-8.001731	328.320451	0.229540	6.642347	266.876624	0.248961
0.530000	-8.036243	328.685459	0.229518	6.695593	266.949740	0.248930
0.540000	-8.066275	328.958853	0.229477	6.760653	267.009003	0.248921
0.550000	-8.084474	329.116214	0.229433	6.837751	267.039174	0.248945
0.560000	-8.085205	329.162145	0.229403	6.924444	267.033100	0.249006
0.570000	-8.066560	329.119529	0.229400	7.016080	266.988009	0.249100
0.580000	-8.030943	329.015029	0.229426	7.108459	266.902864	0.249218
0.590000	-7.984174	328.869507	0.229473	7.200161	266.777875	0.249348
0.600000	-7.933769	328.697494	0.229528	7.291996	266.616235	0.249475
0.610000	-7.887159	328.513593	0.229581	7.383424	266.427337	0.249588
0.620000	-7.850307	328.339560	0.229629	7.468636	266.230050	0.249682
0.630000	-7.826830	328.205388	0.229678	7.535826	266.053904	0.249756
0.640000	-7.817572	328.140995	0.229737	7.571073	265.935907	0.249815
0.650000	-7.820688	328.161020	0.229807	7.564909	265.912310	0.249867
0.660000	-7.832253	328.250995	0.229882	7.517640	266.007583	0.249918
0.670000	-7.847298	328.364738	0.229942	7.440310	266.225413	0.249967
0.680000	-7.860923	328.437691	0.229968	7.350947	266.546361	0.250012
0.690000	-7.869064	328.411617	0.229948	7.268342	266.933619	0.250049
0.700000	-7.868712	328.258742	0.229890	7.206376	267.343879	0.250079
0.710000	-7.857819	327.993054	0.229823	7.170952	267.737752	0.250106
0.720000	-7.835316	327.663192	0.229784	7.159842	268.085105	0.250142
0.730000	-7.801395	327.330672	0.229808	7.164655	268.364591	0.250197
0.740000	-7.757775	327.044102	0.229909	7.174019	268.560746	0.250276
0.750000	-7.707587	326.821475	0.230073	7.177454	268.663386	0.250372
0.760000	-7.654894	326.648579	0.230263	7.169297	268.671689	0.250472
0.770000	-7.604190	326.493540	0.230429	7.151340	268.600846	0.250555
0.780000	-7.560108	326.329100	0.230530	7.132370	268.485998	0.250600
0.790000	-7.527126	326.149816	0.230546	7.123885	268.378640	0.250596
0.800000	-7.508924	325.974623	0.230490	7.133639	268.334586	0.250546
0.810000	-7.507458	325.834468	0.230395	7.160659	268.397297	0.250473
0.820000	-7.522270	325.753940	0.230304	7.194959	268.582766	0.250411
0.830000	-7.550552	325.738428	0.230248	7.222253	268.871302	0.250397
0.840000	-7.587916	325.773215	0.230238	7.230574	269.208848	0.250452
0.850000	-7.629348	325.832747	0.230262	7.214743	269.518315	0.250574
0.860000	-7.669881	325.893173	0.230298	7.176682	269.719959	0.250734
0.870000	-7.704952	325.941599	0.230325	7.122892	269.757285	0.250894
0.880000	-7.730710	325.978971	0.230338	7.062090	269.620435	0.251016
0.890000	-7.744498	326.016676	0.230344	7.004768	269.355680	0.251086
0.900000	-7.745508	326.068546	0.230359	6.963700	269.052620	0.251118
0.910000	-7.735394	326.141304	0.230397	6.952767	268.811121	0.251143
0.920000	-7.718473	326.227803	0.230461	6.982599	268.702067	0.251198
0.930000	-7.701045	326.307201	0.230546	7.054535	268.740861	0.251300
0.940000	-7.689560	326.353018	0.230638	7.156746	268.886286	0.251446
0.950000	-7.687982	326.345266	0.230726	7.265966	269.063864	0.251610
0.960000	-7.695518	326.280177	0.230805	7.355179	269.200678	0.251759
0.970000	-7.706277	326.172706	0.230877	7.403932	269.254402	0.251873
0.980000	-7.711669	326.051416	0.230953	7.406193	269.224238	0.251951
0.990000	-7.704703	325.949064	0.231050	7.371978	269.141727	0.252008
1.000000	-7.683838	325.892889	0.231182	7.322278	269.049385	0.252069
1.010000	-7.653872	325.896943	0.231357	7.280187	268.979895	0.252151
1.020000	-7.622958	325.957393	0.231575	7.262585	268.946297	0.252260
1.030000	-7.597318	326.051686	0.231822	7.275800	268.945737	0.252388
1.040000	-7.576844	326.142900	0.232080	7.316258	268.970921	0.252526
1.050000	-7.554434	326.189699	0.232331	7.374687	269.019795	0.252674
1.060000	-7.519588	326.159705	0.232565	7.441213	269.097213	0.252836
1.070000	-7.464106	326.041439	0.232783	7.508924	269.209260	0.253024
1.080000	-7.386452	325.849393	0.232997	7.574587	269.355850	0.253242
1.090000	-7.292380	325.619148	0.233222	7.636781	269.527134	0.253485
1.100000	-7.191822	325.393863	0.233468	7.693133	269.705688	0.253735
1.110000	-7.094194	325.207853	0.233735	7.738962	269.872912	0.253973
1.120000	-7.004821	325.074768	0.234011	7.768875	270.016637	0.254181
1.130000	-6.924237	324.985610	0.234276	7.780767	270.136790	0.254349
1.140000	-6.850353	324.916482	0.234514	7.779560	270.246405	0.254480
1.150000	-6.781980	324.840751	0.234713	7.777512	270.366442	0.254580
1.160000	-6.721467	324.738812	0.234869	7.789666	270.515676	0.254656
1.170000	-6.674695	324.601749	0.234984	7.826082	270.700310	0.254711
1.180000	-6.648169	324.430245	0.235061	7.884910	270.909298	0.254741
1.190000	-6.644752	324.232848	0.235104	7.950541	271.118722	0.254740
1.200000	-6.660627	324.025821	0.235119	7.998730	271.303068	0.254706
1.210000	-6.685526	323.832642	0.235117	8.006929	271.446815	0.254642
1.220000	-6.706424	323.679407	0.235110	7.965093	271.549828	0.254559
1.230000	-6.712851	323.585108	0.235106	7.881712	271.624508	0.254468
1.240000	-6.700980	323.550780	0.235107	7.781938	271.688044	0.254369
1.250000	-6.674444	323.554060	0.235105	7.698405	271.755215	0.254261
1.260000	-6.641730	323.553687	0.235085	7.658501	271.835155	0.254136
1.270000	-6.611986	323.503607	0.235035	7.673319	271.931555	0.253996
1.280000	-6.591748	323.371609	0.234952	7.732845	272.043502	0.253854
1.290000	-6.584197	323.154818	0.234844	7.809604	272.164944	0.253728
1.300000	-6.590628	322.884627	0.234727	7.869668	272.283327	0.253631
1.310000	-6.612261	322.617328	0.234623	7.886692	272.380189	0.253569
1.320000	-6.650464	322.412964	0.234547	7.852885	272.436326	0.253529
1.330000	-6.704995	322.310860	0.234503	7.781707	272.441233	0.253496
1.340000	-6.771796	322.312458	0.234482	7.700778	272.402421	0.253457
1.350000	-6.842609	322.379295	0.234465	7.638342	272.348352	0.253410
1.360000	-6.907541	322.447970	0.234427	7.610125	272.321312	0.253363
1.370000	-6.959483	322.457348	0.234348	7.613224	272.362026	0.253328
1.380000	-6.997630	322.377638	0.234218	7.629631	272.492802	0.253308
1.390000	-7.027681	322.227976	0.234045	7.636647	272.707309	0.253296
1.400000	-7.058349	322.071495	0.233856	7.618091	272.972214	0.253272
1.410000	-7.096217	321.986237	0.233689	7.570698	273.240015	0.253211
1.420000	-7.141936	322.023687	0.233573	7.503501	273.466516	0.253095
1.430000	-7.189766	322.176100	0.233522	7.431748	273.624352	0.252922
1.440000	-7.230422	322.371614	0.233519	7.369113	273.707176	0.252708
1.450000	-7.255481	322.502057	0.233529	7.322012	273.725261	0.252484
1.460000	-7.261208	322.470419	0.233514	7.288388	273.697720	0.252285
1.470000	-7.250247	322.234033	0.233453	7.261082	273.646547	0.252134
1.480000	-7.230707	321.822064	0.233352	7.233629	273.594308	0.252037
1.490000	-7.213247	321.320068	0.233234	7.205037	273.563788	0.251981
1.500000	-7.207426	320.831752	0.233128	7.180744	273.576696	0.251942
1.510000	-7.218712	320.438594	0.233047	7.169306	273.649875	0.251895
1.520000	-7.247166	320.176414	0.232986	7.176923	273.790071	0.251828
1.530000	-7.288029	320.036249	0.232924	7.202952	273.990344	0.251743
1.540000	-7.333800	319.982878	0.232845	7.238622	274.231034	0.251646
1.550000	-7.376977	319.976629	0.232741	7.269407	274.485587	0.251549
1.560000	-7.412557	319.986506	0.232621	7.280132	274.728156	0.251454
1.570000	-7.439571	319.991591	0.232499	7.261025	274.938483	0.251360
1.580000	-7.461287	319.975815	0.232385	7.212326	275.101753	0.251261
1.590000	-7.484042	319.923350	0.232283	7.144916	275.205510	0.251156
1.600000	-7.514943	319.818910	0.232187	7.075723	275.238624	0.251052
1.610000	-7.558950	319.653016	0.232094	7.019529	275.195852	0.250962
1.620000	-7.616273	319.429520	0.232004	6.981482	275.086065	0.250900
1.630000	-7.681268	319.171120	0.231925	6.954982	274.937350	0.250879
1.640000	-7.743713	318.917831	0.231871	6.926721	274.792626	0.250902
1.650000	-7.792319	318.715313	0.231849	6.886378	274.695878	0.250962
1.660000	-7.819008	318.595974	0.231858	6.835329	274.676563	0.251042
1.670000	-7.821867	318.562611	0.231886	6.788755	274.741536	0.251123
1.680000	-7.805409	318.585386	0.231913	6.768907	274.878255	0.251188
1.690000	-7.778314	318.615434	0.231916	6.792405	275.064977	0.251227
1.700000	-7.750145	318.607642	0.231881	6.858492	275.279992	0.251243
1.710000	-7.728684	318.540093	0.231805	6.945551	275.505109	0.251246
1.720000	-7.718618	318.421504	0.231699	7.018956	275.724615	0.251251
1.730000	-7.721341	318.285892	0.231583	7.046785	275.923993	0.251271
1.740000	-7.735239	318.178690	0.231483	7.015068	276.091048	0.251311
1.750000	-7.756116	318.139139	0.231422	6.934575	276.218650	0.251372
1.760000	-7.777885	318.183397	0.231415	6.836224	276.306717	0.251450
1.770000	-7.793739	318.294114	0.231469	6.758230	276.361720	0.251542
1.780000	-7.797752	318.422869	0.231580	6.731245	276.393346	0.251653
1.790000	-7.786437	318.508047	0.231738	6.767190	276.409077	0.251792
1.800000	-7.759512	318.502441	0.231933	6.855294	276.408817	0.251967
1.810000	-7.719385	318.397364	0.232156	6.966699	276.382724	0.252185
1.820000	-7.669461	318.229864	0.232397	7.066651	276.314633	0.252445
1.830000	-7.612104	318.068121	0.232651	7.130110	276.190407	0.252738
1.840000	-7.547506	317.982163	0.232909	7.153720	276.007226	0.253044
1.850000	-7.474411	318.014744	0.233168	7.157375	275.779004	0.253339
1.860000	-7.392569	318.166233	0.233425	7.173565	275.535162	0.253602
1.870000	-7.305338	318.399106	0.233683	7.229849	275.313036	0.253818
1.880000	-7.220206	318.657695	0.233946	7.334321	275.146383	0.253989
1.890000	-7.146019	318.892520	0.234222	7.472250	275.053578	0.254133
1.900000	-7.088018	319.078246	0.234510	7.615235	275.029741	0.254275
1.910000	-7.043709	319.218929	0.234804	7.736772	275.046672	0.254440
1.920000	-7.002454	319.340610	0.235092	7.824886	275.062049	0.254638
1.930000	-6.949485	319.476199	0.235358	7.885028	275.035031	0.254861
1.940000	-6.872425	319.649459	0.235590	7.932810	274.941455	0.255090
1.950000	-6.767028	319.864358	0.235786	7.982250	274.781309	0.255300
1.960000	-6.639502	320.104141	0.235952	8.037504	274.575105	0.255479
1.970000	-6.504625	320.340918	0.236103	8.093005	274.352070	0.255626
1.980000	-6.380706	320.551243	0.236256	8.140717	274.137349	0.255755
1.990000	-6.283531	320.728705	0.236423	8.178033	273.944690	0.255883
2.000000	-6.221502	320.885312	0.236605	8.209747	273.776159	0.256016
2.010000	-6.193603	321.041106	0.236789	8.242609	273.625703	0.256151
2.020000	-6.190760	321.210569	0.236950	8.277234	273.482536	0.256274
2.030000	-6.199929	321.396955	0.237063	8.304591	273.333183	0.256372
2.040000	-6.209229	321.598333	0.237116	8.310855	273.163960	0.256444
2.050000	-6.212092	321.818173	0.237111	8.287741	272.965556	0.256504
2.060000	-6.208889	322.069031	0.237069	8.240803	272.738381	0.256571
2.070000	-6.205610	322.364357	0.237016	8.189337	272.494689	0.256660
2.080000	-6.210425	322.704520	0.236976	8.157453	272.254158	0.256766
2.090000	-6.229677	323.068408	0.236961	8.161926	272.033844	0.256867
2.100000	-6.264928	323.417673	0.236971	8.204121	271.838239	0.256936
2.110000	-6.311997	323.711662	0.236995	8.270027	271.656167	0.256949
2.120000	-6.362184	323.924883	0.237017	8.337265	271.467084	0.256896
2.130000	-6.405218	324.058644	0.237017	8.384658	271.252794	0.256782
2.140000	-6.433074	324.142230	0.236978	8.399741	271.007019	0.256621
2.150000	-6.443386	324.223497	0.236889	8.381610	270.737387	0.256429
2.160000	-6.441049	324.352340	0.236749	8.338819	270.460177	0.256216
2.170000	-6.436968	324.562856	0.236567	8.283836	270.192773	0.255989
2.180000	-6.443994	324.860573	0.236362	8.226644	269.949100	0.255749
2.190000	-6.471540	325.219303	0.236153	8.170389	269.739672	0.255499
2.200000	-6.521308	325.588241	0.235954	8.111170	269.573647	0.255238
2.210000	-6.586356	325.906236	0.235771	8.042013	269.458753	0.254968
2.220000	-6.654200	326.118562	0.235598	7.958454	269.397469	0.254688
2.230000	-6.712498	326.191973	0.235427	7.861966	269.382282	0.254394
2.240000	-6.754514	326.124452	0.235254	7.758908	269.395040	0.254080
2.250000	-6.781673	325.946260	0.235076	7.656059	269.412941	0.253741
2.260000	-6.802109	325.710075	0.234899	7.556458	269.418391	0.253376
2.270000	-6.826128	325.472200	0.234722	7.458893	269.406659	0.252992
2.280000	-6.860935	325.272562	0.234540	7.361274	269.386722	0.252606
2.290000	-6.907325	325.124095	0.234341	7.264754	269.375220	0.252236
2.300000	-6.960092	325.017969	0.234110	7.174943	269.387096	0.251903
2.310000	-7.012033	324.941321	0.233842	7.099189	269.427607	0.251619
2.320000	-7.059388	324.895145	0.233546	7.042433	269.489772	0.251388
2.330000	-7.105481	324.899117	0.233247	7.005233	269.559422	0.251200
2.340000	-7.160049	324.978939	0.232974	6.985250	269.626080	0.251038
2.350000	-7.234066	325.144338	0.232749	6.980015	269.693019	0.250882
2.360000	-7.332584	325.372915	0.232570	6.987653	269.778185	0.250714
2.370000	-7.449546	325.611296	0.232416	7.004524	269.902641	0.250522
2.380000	-7.567836	325.793423	0.232257	7.022141	270.072495	0.250306
2.390000	-7.665115	325.864915	0.232070	7.026997	270.266677	0.250072
2.400000	-7.722863	325.799996	0.231853	7.004905	270.440786	0.249836
2.410000	-7.734253	325.604294	0.231625	6.947966	270.547241	0.249617
2.420000	-7.707056	325.306680	0.231417	6.860067	270.561090	0.249432
2.430000	-7.660320	324.948461	0.231253	6.757294	270.496435	0.249289
2.440000	-7.616665	324.575618	0.231140	6.662178	270.403439	0.249190
2.450000	-7.593995	324.233344	0.231066	6.593914	270.347291	0.249123
2.460000	-7.600320	323.959064	0.231006	6.559129	270.380935	0.249071
2.470000	-7.633277	323.773124	0.230937	6.548142	270.526294	0.249015
2.480000	-7.683382	323.671810	0.230846	6.539419	270.772305	0.248934
2.490000	-7.738496	323.628613	0.230732	6.510666	271.087014	0.248816
2.500000	-7.787256	323.605034	0.230605	6.451032	271.433177	0.248655
2.510000	-7.820698	323.565854	0.230477	6.367814	271.777480	0.248459
2.520000	-7.832725	323.491077	0.230360	6.283812	272.091155	0.248242
2.530000	-7.820516	323.379438	0.230260	6.226654	272.347472	0.248017
2.540000	-7.785301	323.243311	0.230177	6.215669	272.523150	0.247795
2.550000	-7.732908	323.098889	0.230105	6.252974	272.605743	0.247576
2.560000	-7.673069	322.956756	0.230035	6.322819	272.602417	0.247359
2.570000	-7.617049	322.817100	0.229965	6.398959	272.542911	0.247145
2.580000	-7.574454	322.671308	0.229892	6.455986	272.472446	0.246940
2.590000	-7.550918	322.508599	0.229821	6.479027	272.436585	0.246756
2.600000	-7.547957	322.323832	0.229751	6.467356	272.465249	0.246604
2.610000	-7.564751	322.122093	0.229677	6.430737	272.563872	0.246484
2.620000	-7.600207	321.917746	0.229583	6.381151	272.715843	0.246390
2.630000	-7.653634	321.728924	0.229453	6.325082	272.894008	0.246309
2.640000	-7.723677	321.570569	0.229274	6.261168	273.074214	0.246229
2.650000	-7.806640	321.448956	0.229050	6.184675	273.243272	0.246144
2.660000	-7.895711	321.359126	0.228802	6.095869	273.397887	0.246063
2.670000	-7.981845	321.285712	0.228559	6.006611	273.537397	0.245997
2.680000	-8.055952	321.207494	0.228353	5.940215	273.657389	0.245959
2.690000	-8.111402	321.105146	0.228199	5.923398	273.750316	0.245955
2.700000	-8.145806	320.969368	0.228100	5.973732	273.813558	0.245983
2.710000	-8.161354	320.804628	0.228046	6.088942	273.859111	0.246034
2.720000	-8.163520	320.624777	0.228024	6.244039	273.917020	0.246102
2.730000	-8.158611	320.441550	0.228024	6.398760	274.028346	0.246183
2.740000	-8.151175	320.252330	0.228041	6.512637	274.230181	0.246275
2.750000	-8.142400	320.035363	0.228075	6.560875	274.540423	0.246377
2.760000	-8.130185	319.756781	0.228126	6.543521	274.950416	0.246489
2.770000	-8.110870	319.386706	0.228190	6.483605	275.429270	0.246606
2.780000	-8.081789	318.916114	0.228265	6.415352	275.937349	0.246726
2.790000	-8.043349	318.365474	0.228346	6.368449	276.441354	0.246853
2.800000	-7.999455	317.780475	0.228433	6.356119	276.922786	0.246998
2.810000	-7.955887	317.216534	0.228529	6.372595	277.375750	0.247176
2.820000	-7.917521	316.719331	0.228639	6.400363	277.796935	0.247400
2.830000	-7.886068	316.310786	0.228767	6.422329	278.175550	0.247666
2.840000	-7.859693	315.987263	0.228915	6.431651	278.490643	0.247958
2.850000	-7.834632	315.729944	0.229078	6.434076	278.717960	0.248246
2.860000	-7.807719	315.520176	0.229248	6.442480	278.842186	0.248500
2.870000	-7.778370	315.350175	0.229417	6.467935	278.867422	0.248701
2.880000	-7.749072	315.223518	0.229578	6.513021	278.820401	0.248853
2.890000	-7.724242	315.146746	0.229731	6.570832	278.745097	0.248981
2.900000	-7.708019	315.118222	0.229879	6.629260	278.691116	0.249123
2.910000	-7.702009	315.120987	0.230024	6.677385	278.700102	0.249317
