time (s)	dominant Fap (N)	dominant Fvert (N)	dominant CPap (m)	non-dominant Fap (N)	non-dominant Fvert (N)	non-dominant CPap (m)
0.000000	0.065959	342.131214	0.226941	-1.267339	266.547963	0.217422
0.010000	0.028970	342.584363	0.226920	-1.073332	266.458723	0.217705
0.020000	0.014459	343.005760	0.226921	-0.894153	266.271282	0.217958
0.030000	0.038147	343.349069	0.226964	-0.742945	265.901879	0.218161
0.040000	0.104791	343.557010	0.227064	-0.629288	265.300164	0.218315
0.050000	0.207502	343.589970	0.227228	-0.557683	264.467459	0.218438
0.060000	0.330482	343.459901	0.227454	-0.525743	263.464812	0.218558
0.070000	0.453929	343.243494	0.227728	-0.522684	262.400974	0.218700
0.080000	0.559437	343.060947	0.228025	-0.529913	261.399437	0.218880
0.090000	0.634315	343.029322	0.228312	-0.525449	260.556442	0.219094
0.100000	0.673808	343.215907	0.228563	-0.491736	259.909749	0.219328
0.110000	0.680909	343.616296	0.228761	-0.423553	259.434360	0.219562
0.120000	0.664386	344.166177	0.228911	-0.331547	259.066815	0.219785
0.130000	0.636163	344.776705	0.229032	-0.238607	258.743101	0.220001
0.140000	0.609000	345.372718	0.229155	-0.170089	258.428130	0.220222
0.150000	0.594605	345.915636	0.229302	-0.142263	258.122198	0.220459
0.160000	0.601668	346.404489	0.229483	-0.154515	257.845845	0.220717
0.170000	0.633622	346.860736	0.229694	-0.189090	257.616937	0.220979
0.180000	0.687012	347.308768	0.229918	-0.218576	257.434788	0.221224
0.190000	0.751936	347.762311	0.230137	-0.217509	257.277896	0.221430
0.200000	0.815285	348.220679	0.230333	-0.172548	257.112427	0.221589
0.210000	0.865689	348.672694	0.230497	-0.086612	256.904543	0.221711
0.220000	0.897678	349.103503	0.230623	0.024170	256.631371	0.221816
0.230000	0.912807	349.500542	0.230714	0.138026	256.288813	0.221923
0.240000	0.917313	349.856969	0.230776	0.235064	255.895989	0.222046
0.250000	0.917881	350.171950	0.230820	0.301415	255.495360	0.222184
0.260000	0.918032	350.447486	0.230856	0.329660	255.146874	0.222326
0.270000	0.916921	350.682423	0.230892	0.317614	254.915838	0.222450
0.280000	0.910706	350.866011	0.230929	0.267617	254.857034	0.222529
0.290000	0.895205	350.974448	0.230964	0.186709	254.999782	0.222534
0.300000	0.868139	350.972961	0.230985	0.086397	255.338756	0.222441
0.310000	0.829843	350.823905	0.230982	-0.019345	255.833986	0.222243
0.320000	0.782466	350.499187	0.230947	-0.117712	256.421303	0.221951
0.330000	0.728629	349.993563	0.230880	-0.200632	257.031309	0.221596
0.340000	0.670683	349.333725	0.230788	-0.266233	257.610988	0.221225
0.350000	0.611049	348.577562	0.230687	-0.317220	258.139265	0.220882
0.360000	0.553007	347.800790	0.230593	-0.356810	258.628994	0.220603
0.370000	0.500681	347.074580	0.230517	-0.384104	259.113545	0.220403
0.380000	0.457451	346.444439	0.230461	-0.391366	259.623517	0.220280
0.390000	0.423416	345.921592	0.230411	-0.365327	260.164309	0.220214
0.400000	0.393675	345.491160	0.230350	-0.292977	260.705704	0.220181
0.410000	0.359025	345.130703	0.230263	-0.169701	261.190066	0.220157
0.420000	0.309215	344.826329	0.230146	-0.005557	261.557385	0.220125
0.430000	0.237246	344.576607	0.230004	0.174338	261.776594	0.220087
0.440000	0.142741	344.384295	0.229847	0.336539	261.867917	0.220055
0.450000	0.033077	344.244432	0.229687	0.450736	261.903985	0.220047
0.460000	-0.077958	344.137790	0.229529	0.501096	261.987425	0.220079
0.470000	-0.173484	344.032064	0.229377	0.492545	262.214245	0.220153
0.480000	-0.237933	343.886561	0.229235	0.449088	262.639236	0.220255
0.490000	-0.261330	343.655982	0.229113	0.404595	263.258136	0.220357
0.500000	-0.241999	343.294108	0.229026	0.389651	264.012861	0.220429
0.510000	-0.186677	342.761843	0.228993	0.419701	264.815419	0.220451
0.520000	-0.107957	342.041402	0.229026	0.488970	265.579002	0.220413
0.530000	-0.020156	341.151233	0.229124	0.572123	266.244207	0.220321
0.540000	0.064866	340.151446	0.229274	0.632794	266.793047	0.220192
0.550000	0.140716	339.131916	0.229450	0.636240	267.249291	0.220040
0.560000	0.207842	338.184283	0.229620	0.562231	267.667451	0.219879
0.570000	0.273085	337.368977	0.229758	0.413796	268.114069	0.219721
0.580000	0.347243	336.692887	0.229846	0.218003	268.645844	0.219572
0.590000	0.440606	336.109413	0.229881	0.017445	269.290513	0.219437
0.600000	0.557326	335.542323	0.229871	-0.144746	270.037219	0.219317
0.610000	0.690689	334.923146	0.229832	-0.240072	270.841067	0.219208
0.620000	0.821890	334.224744	0.229777	-0.263406	271.641086	0.219104
0.630000	0.923917	333.475123	0.229719	-0.232101	272.384118	0.218998
0.640000	0.969821	332.745254	0.229664	-0.177177	273.043477	0.218885
0.650000	0.942385	332.117925	0.229615	-0.131587	273.623450	0.218766
0.660000	0.841321	331.653838	0.229573	-0.120464	274.148024	0.218647
0.670000	0.685239	331.370938	0.229540	-0.155823	274.640408	0.218539
0.680000	0.507803	331.243833	0.229516	-0.235548	275.104333	0.218453
0.690000	0.349512	331.218979	0.229501	-0.345217	275.516665	0.218394
0.700000	0.247593	331.235152	0.229494	-0.461504	275.834752	0.218367
0.710000	0.226646	331.240171	0.229492	-0.556794	276.014514	0.218366
0.720000	0.292375	331.200149	0.229491	-0.605221	276.030233	0.218382
0.730000	0.430088	331.102146	0.229485	-0.589987	275.886726	0.218403
0.740000	0.608589	330.952817	0.229467	-0.510345	275.619226	0.218422
0.750000	0.788513	330.775306	0.229427	-0.385030	275.282986	0.218434
0.760000	0.932618	330.605479	0.229360	-0.248897	274.939072	0.218439
0.770000	1.014720	330.487147	0.229266	-0.142222	274.642423	0.218440
0.780000	1.024611	330.464743	0.229148	-0.096294	274.434304	0.218438
0.790000	0.968075	330.572306	0.229020	-0.121818	274.337693	0.218426
0.800000	0.863052	330.820193	0.228892	-0.205649	274.353852	0.218396
0.810000	0.733945	331.184670	0.228775	-0.317145	274.460565	0.218343
0.820000	0.605789	331.607264	0.228671	-0.420714	274.614435	0.218266
0.830000	0.499272	332.008102	0.228581	-0.488830	274.758930	0.218172
0.840000	0.427119	332.310650	0.228505	-0.510658	274.837025	0.218077
0.850000	0.392413	332.468240	0.228443	-0.493820	274.804865	0.217998
0.860000	0.389375	332.480547	0.228400	-0.459372	274.642510	0.217951
0.870000	0.406515	332.392742	0.228378	-0.431960	274.359237	0.217945
0.880000	0.431015	332.278714	0.228378	-0.428923	273.992463	0.217982
0.890000	0.452560	332.216727	0.228396	-0.452912	273.600127	0.218055
0.900000	0.465198	332.267360	0.228421	-0.491525	273.247113	0.218154
0.910000	0.467004	332.459825	0.228445	-0.524045	272.987983	0.218264
0.920000	0.458505	332.787473	0.228452	-0.531668	272.850624	0.218370
0.930000	0.441235	333.210392	0.228432	-0.505976	272.826934	0.218461
0.940000	0.417344	333.663366	0.228370	-0.451905	272.875585	0.218523
0.950000	0.390300	334.069022	0.228260	-0.384726	272.937795	0.218549
0.960000	0.365774	334.355492	0.228107	-0.323363	272.960926	0.218530
0.970000	0.351361	334.474945	0.227924	-0.283346	272.919722	0.218467
0.980000	0.354203	334.416779	0.227741	-0.272227	272.824702	0.218364
0.990000	0.376902	334.210176	0.227584	-0.288774	272.713156	0.218235
1.000000	0.413851	333.915044	0.227475	-0.325646	272.627528	0.218095
1.010000	0.450819	333.605132	0.227420	-0.373817	272.592810	0.217960
1.020000	0.469505	333.349315	0.227407	-0.426459	272.604321	0.217838
1.030000	0.455780	333.196438	0.227417	-0.480527	272.630785	0.217729
1.040000	0.407452	333.167100	0.227428	-0.535702	272.629857	0.217628
1.050000	0.336790	333.253598	0.227422	-0.591692	272.568350	0.217523
1.060000	0.265656	333.427062	0.227385	-0.645653	272.438319	0.217411
1.070000	0.215455	333.648845	0.227310	-0.691371	272.261526	0.217292
1.080000	0.197235	333.882221	0.227190	-0.720916	272.078974	0.217173
1.090000	0.207073	334.101205	0.227023	-0.728112	271.929172	0.217059
1.100000	0.228770	334.295235	0.226812	-0.711980	271.826385	0.216949
1.110000	0.242003	334.469805	0.226570	-0.678122	271.752462	0.216832
1.120000	0.231719	334.643061	0.226318	-0.637176	271.669099	0.216694
1.130000	0.194517	334.837887	0.226084	-0.601296	271.544298	0.216528
1.140000	0.139595	335.069952	0.225892	-0.580740	271.376557	0.216335
1.150000	0.084284	335.335123	0.225755	-0.582339	271.201035	0.216125
1.160000	0.046408	335.602370	0.225666	-0.610070	271.073497	0.215906
1.170000	0.036806	335.817925	0.225604	-0.666381	271.041952	0.215672
1.180000	0.055120	335.921592	0.225542	-0.752429	271.122885	0.215408
1.190000	0.090325	335.869053	0.225455	-0.866347	271.295051	0.215089
1.200000	0.125310	335.649387	0.225334	-1.000497	271.512557	0.214699
1.210000	0.143165	335.288816	0.225185	-1.140091	271.728004	0.214239
1.220000	0.132527	334.839255	0.225023	-1.265452	271.912284	0.213737
1.230000	0.090367	334.358773	0.224869	-1.358262	272.061764	0.213242
1.240000	0.021993	333.894557	0.224741	-1.409430	272.192270	0.212806
1.250000	-0.061074	333.475710	0.224651	-1.424591	272.326339	0.212471
1.260000	-0.144525	333.116294	0.224604	-1.423788	272.481766	0.212258
1.270000	-0.215136	332.823279	0.224598	-1.434625	272.666107	0.212166
1.280000	-0.264127	332.602478	0.224627	-1.481344	272.877138	0.212174
1.290000	-0.288912	332.458010	0.224677	-1.574435	273.106449	0.212254
1.300000	-0.292599	332.385746	0.224733	-1.705367	273.343284	0.212375
1.310000	-0.281556	332.366190	0.224778	-1.848992	273.577083	0.212512
1.320000	-0.262362	332.364262	0.224798	-1.972807	273.798578	0.212649
1.330000	-0.239651	332.339771	0.224789	-2.049002	274.000197	0.212774
1.340000	-0.215721	332.264340	0.224760	-2.063775	274.176805	0.212881
1.350000	-0.191611	332.134027	0.224728	-2.019848	274.327500	0.212969
1.360000	-0.168648	331.967948	0.224714	-1.932106	274.457951	0.213036
1.370000	-0.149347	331.792349	0.224735	-1.820097	274.581455	0.213082
1.380000	-0.137018	331.620172	0.224789	-1.702074	274.716603	0.213111
1.390000	-0.134126	331.440166	0.224862	-1.592712	274.881160	0.213126
1.400000	-0.140236	331.223596	0.224927	-1.503196	275.084338	0.213136
1.410000	-0.150840	330.944621	0.224961	-1.441100	275.321389	0.213145
1.420000	-0.158232	330.600752	0.224961	-1.408941	275.573910	0.213161
1.430000	-0.154503	330.219340	0.224945	-1.402480	275.816639	0.213190
1.440000	-0.135341	329.845391	0.224948	-1.410628	276.028193	0.213243
1.450000	-0.102518	329.518830	0.225005	-1.417975	276.200962	0.213330
1.460000	-0.063495	329.256428	0.225131	-1.409589	276.345448	0.213462
1.470000	-0.028224	329.049829	0.225317	-1.376673	276.486931	0.213645
1.480000	-0.004819	328.879458	0.225531	-1.321054	276.656040	0.213873
1.490000	0.003633	328.733090	0.225735	-1.256289	276.877557	0.214129
1.500000	-0.000368	328.615136	0.225900	-1.203831	277.161900	0.214391
1.510000	-0.010762	328.539727	0.226014	-1.184594	277.501465	0.214633
1.520000	-0.021065	328.512332	0.226082	-1.209072	277.871188	0.214840
1.530000	-0.026770	328.513217	0.226113	-1.271084	278.231547	0.215008
1.540000	-0.026050	328.495790	0.226121	-1.349427	278.533329	0.215142
1.550000	-0.019151	328.403730	0.226115	-1.417608	278.725583	0.215253
1.560000	-0.007630	328.198564	0.226106	-1.456783	278.768447	0.215355
1.570000	0.005742	327.882055	0.226107	-1.464521	278.649540	0.215452
1.580000	0.016706	327.500395	0.226133	-1.454254	278.397436	0.215547
1.590000	0.019908	327.128002	0.226196	-1.445937	278.083121	0.215635
1.600000	0.010592	326.840208	0.226297	-1.453635	277.804013	0.215717
1.610000	-0.012906	326.688659	0.226428	-1.477240	277.654359	0.215796
1.620000	-0.047396	326.689123	0.226574	-1.502676	277.694395	0.215884
1.630000	-0.085117	326.823049	0.226720	-1.510042	277.932170	0.215993
1.640000	-0.116126	327.047876	0.226857	-1.484998	278.325254	0.216132
1.650000	-0.131518	327.309591	0.226984	-1.427319	278.799408	0.216305
1.660000	-0.125871	327.553309	0.227106	-1.352019	279.274060	0.216508
1.670000	-0.098095	327.730894	0.227228	-1.282187	279.683560	0.216733
1.680000	-0.050975	327.806593	0.227349	-1.237016	279.987769	0.216970
1.690000	0.009914	327.761590	0.227472	-1.221361	280.172013	0.217214
1.700000	0.077559	327.596952	0.227595	-1.222599	280.241101	0.217468
1.710000	0.145112	327.333377	0.227724	-1.216464	280.212912	0.217741
1.720000	0.207611	327.006723	0.227869	-1.178386	280.114430	0.218046
1.730000	0.263169	326.660160	0.228041	-1.094091	279.979488	0.218396
1.740000	0.312927	326.335465	0.228248	-0.964538	279.845534	0.218793
1.750000	0.359710	326.066177	0.228491	-0.804150	279.747727	0.219228
1.760000	0.406188	325.874046	0.228760	-0.634685	279.711383	0.219680
1.770000	0.453617	325.768432	0.229041	-0.477998	279.745991	0.220124
1.780000	0.501619	325.747116	0.229320	-0.349887	279.843911	0.220542
1.790000	0.548551	325.797233	0.229588	-0.255951	279.984522	0.220928
1.800000	0.591913	325.896287	0.229842	-0.190094	280.141677	0.221291
1.810000	0.628904	326.014471	0.230086	-0.136549	280.290762	0.221653
1.820000	0.657747	326.119479	0.230320	-0.075634	280.412519	0.222035
1.830000	0.679767	326.183398	0.230542	0.008487	280.493392	0.222454
1.840000	0.700844	326.189482	0.230748	0.121671	280.524465	0.222919
1.850000	0.730252	326.136478	0.230934	0.258756	280.501256	0.223426
1.860000	0.776328	326.040012	0.231104	0.408250	280.424690	0.223966
1.870000	0.841055	325.931940	0.231275	0.559610	280.301672	0.224530
1.880000	0.917211	325.857231	0.231470	0.708166	280.143908	0.225111
1.890000	0.990625	325.865404	0.231709	0.854603	279.965587	0.225705
1.900000	1.046762	325.994625	0.231997	1.000141	279.781755	0.226307
1.910000	1.077831	326.253025	0.232316	1.141861	279.607839	0.226904
1.920000	1.086255	326.608323	0.232628	1.272194	279.458084	0.227479
1.930000	1.082673	326.995859	0.232888	1.382728	279.340131	0.228006
1.940000	1.079964	327.344834	0.233064	1.468676	279.246510	0.228460
1.950000	1.086807	327.609936	0.233148	1.529916	279.149064	0.228825
1.960000	1.104134	327.790270	0.233165	1.568014	279.003990	0.229099
1.970000	1.125942	327.923968	0.233156	1.582622	278.769871	0.229294
1.980000	1.143472	328.061062	0.233163	1.571513	278.431433	0.229428
1.990000	1.150098	328.230314	0.233211	1.535149	278.015252	0.229517
2.000000	1.144155	328.419511	0.233299	1.482098	277.586441	0.229568
2.010000	1.128400	328.580864	0.233404	1.429723	277.226378	0.229582
2.020000	1.107073	328.658152	0.233497	1.397302	277.002869	0.229556
2.030000	1.083029	328.619391	0.233551	1.394548	276.947461	0.229495
2.040000	1.057183	328.476033	0.233559	1.413091	277.048512	0.229410
2.050000	1.030634	328.278755	0.233525	1.428174	277.258940	0.229322
2.060000	1.007530	328.094497	0.233464	1.411919	277.511661	0.229248
2.070000	0.995817	327.979728	0.233392	1.351390	277.735911	0.229199
2.080000	1.004221	327.964549	0.233317	1.260027	277.870963	0.229172
2.090000	1.036523	328.052924	0.233243	1.173716	277.876017	0.229158
2.100000	1.086486	328.233839	0.233166	1.131939	277.735476	0.229143
2.110000	1.137123	328.493444	0.233082	1.154401	277.458905	0.229114
2.120000	1.165819	328.820345	0.232991	1.227352	277.075954	0.229064
2.130000	1.153559	329.202192	0.232896	1.308575	276.627936	0.228991
2.140000	1.093958	329.617699	0.232804	1.348759	276.158394	0.228898
2.150000	0.997528	330.031538	0.232721	1.317228	275.704656	0.228789
2.160000	0.888776	330.398450	0.232652	1.217751	275.292004	0.228671
2.170000	0.797106	330.677264	0.232593	1.086347	274.932072	0.228545
2.180000	0.745485	330.848504	0.232537	0.973056	274.626581	0.228414
2.190000	0.741808	330.925678	0.232479	0.917529	274.375106	0.228276
2.200000	0.776551	330.953002	0.232415	0.930389	274.182124	0.228134
2.210000	0.827373	330.989374	0.232344	0.988592	274.057551	0.227988
2.220000	0.868334	331.085585	0.232268	1.046117	274.008951	0.227840
2.230000	0.879642	331.265112	0.232188	1.054584	274.030354	0.227689
2.240000	0.854048	331.517067	0.232105	0.984644	274.096423	0.227529
2.250000	0.797760	331.803925	0.232019	0.839299	274.167559	0.227348
2.260000	0.726275	332.079297	0.231929	0.653933	274.203717	0.227137
2.270000	0.657484	332.306280	0.231840	0.483139	274.178464	0.226893
2.280000	0.605140	332.467819	0.231756	0.379417	274.085128	0.226623
2.290000	0.575043	332.566533	0.231682	0.372059	273.933126	0.226339
2.300000	0.564823	332.618022	0.231618	0.454611	273.739352	0.226056
2.310000	0.566503	332.644044	0.231562	0.586144	273.521715	0.225784
2.320000	0.570107	332.669031	0.231504	0.706087	273.298222	0.225527
2.330000	0.566630	332.718711	0.231431	0.756974	273.089157	0.225277
2.340000	0.549705	332.817622	0.231327	0.706254	272.916817	0.225028
2.350000	0.516348	332.984331	0.231183	0.558470	272.799181	0.224772
2.360000	0.467480	333.226635	0.230994	0.352905	272.739228	0.224505
2.370000	0.408173	333.540253	0.230768	0.147894	272.716191	0.224228
2.380000	0.346844	333.912439	0.230521	-0.001172	272.685626	0.223943
2.390000	0.292740	334.328469	0.230277	-0.060745	272.590879	0.223658
2.400000	0.252384	334.776989	0.230052	-0.028086	272.381757	0.223383
2.410000	0.226831	335.251115	0.229857	0.071109	272.031609	0.223129
2.420000	0.211497	335.744905	0.229688	0.193200	271.544885	0.222908
2.430000	0.198737	336.247388	0.229531	0.290621	270.953136	0.222724
2.440000	0.181649	336.737520	0.229374	0.325801	270.303667	0.222574
2.450000	0.156961	337.183334	0.229208	0.282300	269.647087	0.222440
2.460000	0.125742	337.547645	0.229038	0.170295	269.027764	0.222298
2.470000	0.092079	337.800377	0.228876	0.023573	268.478108	0.222117
2.480000	0.060804	337.933650	0.228737	-0.112811	268.016671	0.221878
2.490000	0.035519	337.971940	0.228635	-0.200800	267.650350	0.221574
2.500000	0.017591	337.969423	0.228573	-0.226071	267.380133	0.221221
2.510000	0.006151	337.992021	0.228543	-0.205011	267.207530	0.220847
2.520000	-0.001353	338.090258	0.228525	-0.177721	267.137346	0.220485
2.530000	-0.008524	338.275229	0.228498	-0.189689	267.174225	0.220154
2.540000	-0.019500	338.509661	0.228440	-0.270570	267.314604	0.219855
2.550000	-0.038399	338.719247	0.228336	-0.420048	267.539277	0.219571
2.560000	-0.068393	338.819921	0.228187	-0.607460	267.811940	0.219283
2.570000	-0.110369	338.749473	0.228004	-0.785388	268.085784	0.218974
2.580000	-0.161779	338.490194	0.227803	-0.910746	268.316004	0.218644
2.590000	-0.216753	338.073845	0.227604	-0.963225	268.473554	0.218303
2.600000	-0.268172	337.568424	0.227418	-0.952238	268.555332	0.217972
2.610000	-0.311075	337.053875	0.227251	-0.909624	268.587509	0.217668
2.620000	-0.345463	336.597251	0.227102	-0.872952	268.620544	0.217408
2.630000	-0.376499	336.236125	0.226967	-0.868797	268.716484	0.217204
2.640000	-0.411585	335.974080	0.226839	-0.904221	268.931309	0.217065
2.650000	-0.455901	335.787129	0.226712	-0.968720	269.297042	0.216994
2.660000	-0.508991	335.636903	0.226581	-1.042807	269.809349	0.216987
2.670000	-0.564265	335.485349	0.226447	-1.107008	270.425440	0.217027
2.680000	-0.611505	335.305697	0.226319	-1.147342	271.074327	0.217087
2.690000	-0.640858	335.085721	0.226209	-1.157114	271.677288	0.217136
2.700000	-0.646453	334.822505	0.226126	-1.136791	272.171964	0.217149
2.710000	-0.628347	334.512396	0.226078	-1.092944	272.531010	0.217120
2.720000	-0.592381	334.143029	0.226066	-1.035879	272.767746	0.217062
2.730000	-0.548185	333.693657	0.226085	-0.975615	272.926973	0.217000
2.740000	-0.506020	333.145363	0.226130	-0.917640	273.066114	0.216958
2.750000	-0.473499	332.496384	0.226193	-0.861241	273.235879	0.216953
2.760000	-0.453354	331.773771	0.226267	-0.802327	273.468329	0.216983
2.770000	-0.443165	331.033494	0.226339	-0.739700	273.774775	0.217036
2.780000	-0.437159	330.346984	0.226395	-0.680651	274.150322	0.217096
2.790000	-0.429351	329.779558	0.226422	-0.641326	274.579682	0.217147
2.800000	-0.416657	329.370646	0.226408	-0.640174	275.040797	0.217180
2.810000	-0.400639	329.124585	0.226353	-0.687586	275.506152	0.217186
2.820000	-0.387105	329.015002	0.226265	-0.778070	275.943632	0.217160
2.830000	-0.383667	328.999262	0.226163	-0.890542	276.318607	0.217101
2.840000	-0.396232	329.035628	0.226066	-0.997453	276.597945	0.217011
2.850000	-0.425886	329.095871	0.225990	-1.077593	276.755777	0.216900
2.860000	-0.467530	329.169060	0.225939	-1.124800	276.780058	0.216782
2.870000	-0.510849	329.256412	0.225910	-1.147469	276.677861	0.216677
2.880000	-0.543295	329.361056	0.225893	-1.159982	276.476681	0.216601
2.890000	-0.554027	329.479093	0.225881	-1.172281	276.219551	0.216566
2.900000	-0.537560	329.598061	0.225869	-1.184348	275.953878	0.216576
2.910000	-0.496039	329.704957	0.225859	-1.188299	275.716956	0.216627
