time (s)	dominant Fap (N)	dominant Fvert (N)	dominant CPap (m)	non-dominant Fap (N)	non-dominant Fvert (N)	non-dominant CPap (m)
0.000000	2.863052	356.232623	0.234080	-4.748357	296.162736	0.225970
0.010000	2.820348	356.446203	0.233819	-4.683553	296.227177	0.225497
0.020000	2.771056	356.573113	0.233531	-4.662489	296.294079	0.225062
0.030000	2.708863	356.565787	0.233201	-4.707316	296.363386	0.224687
0.040000	2.628943	356.433838	0.232830	-4.809417	296.432270	0.224371
0.050000	2.529982	356.233604	0.232436	-4.936425	296.497620	0.224102
0.060000	2.415871	356.035186	0.232045	-5.050783	296.557748	0.223861
0.070000	2.295846	355.885190	0.231686	-5.128641	296.610798	0.223640
0.080000	2.182762	355.785133	0.231380	-5.168690	296.651292	0.223444
0.090000	2.090142	355.696478	0.231136	-5.187446	296.669105	0.223279
0.100000	2.028876	355.568373	0.230949	-5.205608	296.653797	0.223152
0.110000	2.004191	355.371668	0.230811	-5.234419	296.602514	0.223066
0.120000	2.013495	355.120014	0.230711	-5.269581	296.525784	0.223015
0.130000	2.046058	354.867260	0.230640	-5.294786	296.446062	0.222993
0.140000	2.085433	354.683907	0.230595	-5.291365	296.388517	0.222992
0.150000	2.114536	354.626020	0.230574	-5.247997	296.368687	0.223004
0.160000	2.121716	354.712294	0.230574	-5.165592	296.383681	0.223024
0.170000	2.105162	354.919360	0.230590	-5.055981	296.411582	0.223045
0.180000	2.073609	355.195736	0.230614	-4.936483	296.419313	0.223067
0.190000	2.043010	355.486137	0.230636	-4.823934	296.374940	0.223094
0.200000	2.030688	355.753982	0.230652	-4.730974	296.258387	0.223136
0.210000	2.049305	355.992016	0.230660	-4.665075	296.065710	0.223207
0.220000	2.102823	356.217594	0.230673	-4.628783	295.805909	0.223319
0.230000	2.185656	356.456778	0.230710	-4.619458	295.493531	0.223475
0.240000	2.285139	356.726574	0.230797	-4.628479	295.142303	0.223672
0.250000	2.386376	357.024821	0.230955	-4.641672	294.763569	0.223894
0.260000	2.477675	357.332570	0.231193	-4.642697	294.369431	0.224122
0.270000	2.554467	357.626867	0.231500	-4.618781	293.977156	0.224339
0.280000	2.620160	357.896374	0.231848	-4.565714	293.610832	0.224536
0.290000	2.683700	358.150775	0.232204	-4.488822	293.298416	0.224707
0.300000	2.754964	358.418153	0.232539	-4.399188	293.065223	0.224857
0.310000	2.839906	358.730923	0.232836	-4.307653	292.926625	0.224993
0.320000	2.937398	359.107622	0.233093	-4.220315	292.882665	0.225125
0.330000	3.039139	359.540618	0.233316	-4.137830	292.916399	0.225261
0.340000	3.132966	359.996531	0.233517	-4.058122	292.996531	0.225406
0.350000	3.208475	360.428506	0.233710	-3.980080	293.083686	0.225561
0.360000	3.262460	360.792960	0.233906	-3.905685	293.138498	0.225719
0.370000	3.301413	361.062234	0.234118	-3.839461	293.129181	0.225875
0.380000	3.339515	361.228785	0.234356	-3.786158	293.036764	0.226026
0.390000	3.392801	361.301962	0.234625	-3.748668	292.857333	0.226173
0.400000	3.472134	361.301437	0.234922	-3.727689	292.601465	0.226318
0.410000	3.578260	361.251216	0.235237	-3.722947	292.291299	0.226468
0.420000	3.701295	361.176410	0.235559	-3.734372	291.955541	0.226626
0.430000	3.824987	361.103023	0.235873	-3.761614	291.623108	0.226797
0.440000	3.933895	361.059069	0.236174	-3.801907	291.316822	0.226985
0.450000	4.020078	361.074008	0.236464	-3.848064	291.049090	0.227192
0.460000	4.085971	361.173768	0.236751	-3.888962	290.820955	0.227413
0.470000	4.141991	361.371391	0.237045	-3.913301	290.624585	0.227640
0.480000	4.200342	361.657433	0.237352	-3.914853	290.448054	0.227856
0.490000	4.268657	361.996639	0.237670	-3.895630	290.280685	0.228043
0.500000	4.347069	362.335780	0.237983	-3.864262	290.117106	0.228184
0.510000	4.429927	362.621889	0.238272	-3.830177	289.958669	0.228276
0.520000	4.510336	362.823476	0.238517	-3.797580	289.811899	0.228328
0.530000	4.584056	362.943766	0.238707	-3.763773	289.685089	0.228357
0.540000	4.650163	363.017617	0.238842	-3.723215	289.584830	0.228384
0.550000	4.708474	363.092236	0.238934	-3.674303	289.513863	0.228418
0.560000	4.756222	363.201363	0.239005	-3.623609	289.470540	0.228461
0.570000	4.787148	363.347083	0.239074	-3.583907	289.449572	0.228502
0.580000	4.794582	363.498961	0.239155	-3.566723	289.443955	0.228532
0.590000	4.777110	363.609666	0.239246	-3.574300	289.448115	0.228547
0.600000	4.742988	363.636951	0.239337	-3.596948	289.461635	0.228552
0.610000	4.709387	363.560220	0.239410	-3.618461	289.491460	0.228553
0.620000	4.695420	363.385789	0.239450	-3.626596	289.550064	0.228554
0.630000	4.712107	363.142614	0.239448	-3.621502	289.648848	0.228553
0.640000	4.755234	362.873462	0.239411	-3.615812	289.789508	0.228545
0.650000	4.805959	362.624661	0.239353	-3.625784	289.958689	0.228519
0.660000	4.839525	362.434522	0.239296	-3.659224	290.130682	0.228473
0.670000	4.837289	362.320908	0.239255	-3.708367	290.278519	0.228408
0.680000	4.795119	362.271899	0.239235	-3.752560	290.388189	0.228332
0.690000	4.723562	362.246138	0.239222	-3.769056	290.467576	0.228252
0.700000	4.640378	362.186916	0.239194	-3.745146	290.543946	0.228173
0.710000	4.560572	362.046378	0.239127	-3.684551	290.650375	0.228091
0.720000	4.489938	361.808410	0.239007	-3.605193	290.808005	0.228000
0.730000	4.425238	361.497155	0.238835	-3.530739	291.013560	0.227894
0.740000	4.359676	361.165211	0.238627	-3.481285	291.239067	0.227766
0.750000	4.289395	360.867461	0.238407	-3.467860	291.445059	0.227619
0.760000	4.216851	360.635039	0.238199	-3.492128	291.602050	0.227457
0.770000	4.149540	360.463211	0.238018	-3.549413	291.710134	0.227288
0.780000	4.095582	360.317899	0.237875	-3.631902	291.805593	0.227127
0.790000	4.059247	360.154899	0.237771	-3.730039	291.948250	0.226989
0.800000	4.038985	359.940678	0.237703	-3.832371	292.193120	0.226890
0.810000	4.028583	359.665571	0.237662	-3.925608	292.559736	0.226840
0.820000	4.020194	359.345757	0.237635	-3.996442	293.015924	0.226840
0.830000	4.007359	359.015434	0.237610	-4.035019	293.486527	0.226878
0.840000	3.986869	358.713328	0.237573	-4.038229	293.884378	0.226931
0.850000	3.959274	358.468741	0.237520	-4.010583	294.148330	0.226979
0.860000	3.928331	358.291974	0.237452	-3.961830	294.268979	0.227008
0.870000	3.899539	358.172285	0.237372	-3.902773	294.289326	0.227014
0.880000	3.878021	358.083778	0.237291	-3.841955	294.281328	0.227005
0.890000	3.866401	357.996736	0.237216	-3.784968	294.311805	0.226990
0.900000	3.863598	357.889812	0.237152	-3.735961	294.415485	0.226977
0.910000	3.865046	357.758202	0.237102	-3.699426	294.586998	0.226966
0.920000	3.864244	357.614759	0.237065	-3.680658	294.791983	0.226954
0.930000	3.855115	357.484211	0.237039	-3.684626	294.987648	0.226938
0.940000	3.834586	357.393491	0.237020	-3.714099	295.140493	0.226917
0.950000	3.804585	357.362072	0.237002	-3.768118	295.233563	0.226889
0.960000	3.772363	357.395303	0.236982	-3.841509	295.263382	0.226854
0.970000	3.748302	357.482186	0.236956	-3.925593	295.232519	0.226807
0.980000	3.741522	357.598153	0.236922	-4.009695	295.144570	0.226745
0.990000	3.755220	357.712788	0.236879	-4.082769	295.004684	0.226665
1.000000	3.784414	357.801236	0.236823	-4.134693	294.823603	0.226570
1.010000	3.817760	357.855665	0.236752	-4.157433	294.620358	0.226471
1.020000	3.842781	357.891429	0.236663	-4.146703	294.419928	0.226379
1.030000	3.851735	357.943466	0.236563	-4.104249	294.246059	0.226303
1.040000	3.844856	358.052640	0.236464	-4.039667	294.112928	0.226244
1.050000	3.829196	358.247050	0.236384	-3.969881	294.020239	0.226196
1.060000	3.813885	358.526639	0.236332	-3.915133	293.954513	0.226153
1.070000	3.804755	358.858610	0.236309	-3.892469	293.896113	0.226107
1.080000	3.801636	359.186378	0.236301	-3.909589	293.828546	0.226051
1.090000	3.799812	359.448488	0.236288	-3.962159	293.745263	0.225981
1.100000	3.794334	359.599192	0.236253	-4.036002	293.650366	0.225893
1.110000	3.783960	359.621707	0.236192	-4.113161	293.552980	0.225782
1.120000	3.771932	359.529191	0.236115	-4.178960	293.458950	0.225648
1.130000	3.763189	359.355098	0.236040	-4.226856	293.365628	0.225501
1.140000	3.760166	359.140011	0.235984	-4.259024	293.264044	0.225355
1.150000	3.760181	358.922584	0.235952	-4.282813	293.147887	0.225228
1.160000	3.756055	358.737555	0.235937	-4.305485	293.023426	0.225133
1.170000	3.739289	358.617456	0.235927	-4.330510	292.912933	0.225072
1.180000	3.703662	358.591790	0.235908	-4.357333	292.848006	0.225035
1.190000	3.647444	358.680133	0.235877	-4.383738	292.855781	0.225006
1.200000	3.573824	358.881401	0.235837	-4.407948	292.945552	0.224968
1.210000	3.490237	359.165888	0.235798	-4.428432	293.102696	0.224916
1.220000	3.407256	359.476620	0.235766	-4.442160	293.292334	0.224851
1.230000	3.337038	359.742389	0.235743	-4.443944	293.470441	0.224782
1.240000	3.290943	359.898756	0.235728	-4.428633	293.597764	0.224717
1.250000	3.276487	359.908353	0.235715	-4.395125	293.651939	0.224662
1.260000	3.294721	359.771178	0.235699	-4.349209	293.634256	0.224616
1.270000	3.339567	359.520297	0.235678	-4.302716	293.568935	0.224579
1.280000	3.399838	359.206319	0.235654	-4.268870	293.495022	0.224552
1.290000	3.463064	358.879553	0.235630	-4.256219	293.453793	0.224540
1.300000	3.519013	358.578114	0.235611	-4.264606	293.476414	0.224548
1.310000	3.561098	358.324411	0.235600	-4.285707	293.576033	0.224582
1.320000	3.585612	358.126855	0.235601	-4.308073	293.746084	0.224641
1.330000	3.590452	357.982359	0.235619	-4.323756	293.964176	0.224724
1.340000	3.575205	357.878075	0.235657	-4.332370	294.199712	0.224823
1.350000	3.542978	357.794031	0.235712	-4.339955	294.422998	0.224928
1.360000	3.502415	357.708791	0.235781	-4.353395	294.613491	0.225029
1.370000	3.467542	357.607447	0.235857	-4.374067	294.764967	0.225120
1.380000	3.454140	357.488008	0.235933	-4.394831	294.886065	0.225200
1.390000	3.473581	357.361471	0.236006	-4.402333	294.995845	0.225274
1.400000	3.527125	357.244011	0.236076	-4.383409	295.115643	0.225347
1.410000	3.604043	357.144818	0.236148	-4.332035	295.260016	0.225426
1.420000	3.685209	357.056855	0.236228	-4.252992	295.430488	0.225512
1.430000	3.750881	356.957083	0.236320	-4.160288	295.615060	0.225600
1.440000	3.788958	356.817522	0.236424	-4.071282	295.793971	0.225682
1.450000	3.799561	356.621794	0.236534	-3.999860	295.948839	0.225752
1.460000	3.793705	356.377862	0.236639	-3.952285	296.070386	0.225807
1.470000	3.786985	356.119233	0.236730	-3.927475	296.160820	0.225849
1.480000	3.791801	355.893159	0.236799	-3.920536	296.230358	0.225883
1.490000	3.812015	355.741545	0.236844	-3.926468	296.290772	0.225916
1.500000	3.842253	355.684043	0.236871	-3.941488	296.349982	0.225955
1.510000	3.871433	355.711171	0.236888	-3.961750	296.410158	0.226002
1.520000	3.888329	355.789533	0.236903	-3.981513	296.469134	0.226058
1.530000	3.886529	355.875137	0.236920	-3.993149	296.523281	0.226122
1.540000	3.866940	355.927916	0.236936	-3.989766	296.570129	0.226191
1.550000	3.837206	355.921719	0.236948	-3.968886	296.610131	0.226265
1.560000	3.808692	355.847678	0.236953	-3.934440	296.647648	0.226339
1.570000	3.792475	355.711985	0.236953	-3.895250	296.690905	0.226412
1.580000	3.795987	355.530642	0.236956	-3.860654	296.750184	0.226480
1.590000	3.821304	355.323711	0.236975	-3.836165	296.834232	0.226542
1.600000	3.865212	355.110954	0.237018	-3.822215	296.946451	0.226592
1.610000	3.920514	354.909661	0.237087	-3.816801	297.083225	0.226626
1.620000	3.977914	354.734067	0.237175	-3.819858	297.235321	0.226638
1.630000	4.027978	354.594630	0.237264	-3.835734	297.390896	0.226626
1.640000	4.062865	354.495862	0.237336	-3.871350	297.537664	0.226590
1.650000	4.077661	354.433382	0.237371	-3.930662	297.663308	0.226536
1.660000	4.071156	354.393019	0.237362	-4.008840	297.755486	0.226469
1.670000	4.046029	354.354628	0.237307	-4.090274	297.803342	0.226403
1.680000	4.008310	354.300405	0.237217	-4.152698	297.800927	0.226347
1.690000	3.965999	354.223912	0.237111	-4.176240	297.750925	0.226316
1.700000	3.926811	354.134553	0.237011	-4.153021	297.666415	0.226317
1.710000	3.895601	354.054354	0.236938	-4.091970	297.569105	0.226351
1.720000	3.872632	354.008159	0.236908	-4.015785	297.483919	0.226407
1.730000	3.853895	354.011980	0.236925	-3.951379	297.431333	0.226464
1.740000	3.833754	354.065082	0.236986	-3.918941	297.420335	0.226497
1.750000	3.808650	354.149132	0.237076	-3.925230	297.445646	0.226486
1.760000	3.779612	354.234176	0.237174	-3.963699	297.491880	0.226425
1.770000	3.751914	354.288389	0.237263	-4.019794	297.543893	0.226323
1.780000	3.731990	354.287671	0.237330	-4.077462	297.598298	0.226201
1.790000	3.723635	354.222105	0.237370	-4.123580	297.668687	0.226084
1.800000	3.725939	354.098098	0.237387	-4.149566	297.779421	0.225996
1.810000	3.734136	353.936696	0.237384	-4.151552	297.949453	0.225947
1.820000	3.742459	353.769367	0.237369	-4.130711	298.174762	0.225940
1.830000	3.746893	353.632237	0.237347	-4.093965	298.420402	0.225966
1.840000	3.746135	353.558886	0.237323	-4.053831	298.628339	0.226013
1.850000	3.740627	353.571473	0.237304	-4.026000	298.738063	0.226071
1.860000	3.730875	353.671371	0.237294	-4.024444	298.709597	0.226135
1.870000	3.716532	353.832940	0.237298	-4.055675	298.538222	0.226204
1.880000	3.696926	354.005536	0.237314	-4.114840	298.256400	0.226279
1.890000	3.672605	354.126840	0.237335	-4.186079	297.925519	0.226361
1.900000	3.646717	354.145199	0.237349	-4.247658	297.622605	0.226445
1.910000	3.625174	354.042542	0.237351	-4.279906	297.424885	0.226525
1.920000	3.615322	353.846584	0.237345	-4.272292	297.392596	0.226596
1.930000	3.623689	353.623935	0.237348	-4.226418	297.551914	0.226658
1.940000	3.653766	353.454111	0.237382	-4.154137	297.883852	0.226717
1.950000	3.704640	353.394599	0.237466	-4.072758	298.326404	0.226778
1.960000	3.770871	353.453561	0.237599	-4.000259	298.792447	0.226846
1.970000	3.843655	353.584626	0.237760	-3.952033	299.197302	0.226923
1.980000	3.912971	353.707544	0.237914	-3.938591	299.483630	0.227006
1.990000	3.970084	353.744967	0.238024	-3.963086	299.632647	0.227089
2.000000	4.009512	353.657275	0.238068	-4.019007	299.658698	0.227165
2.010000	4.029665	353.458941	0.238047	-4.090200	299.593332	0.227224
2.020000	4.032028	353.209974	0.237983	-4.155109	299.469180	0.227258
2.030000	4.019663	352.988572	0.237906	-4.194583	299.311325	0.227263
2.040000	3.996270	352.859333	0.237843	-4.199557	299.137670	0.227240
2.050000	3.966527	352.851564	0.237805	-4.174204	298.964361	0.227197
2.060000	3.937209	352.955066	0.237788	-4.132597	298.810496	0.227145
2.070000	3.917408	353.131250	0.237782	-4.090951	298.697809	0.227101
2.080000	3.916374	353.331255	0.237776	-4.060100	298.644607	0.227073
2.090000	3.939190	353.512475	0.237764	-4.042337	298.657308	0.227065
2.100000	3.982694	353.648631	0.237744	-4.033506	298.725578	0.227071
2.110000	4.034769	353.732437	0.237721	-4.027914	298.825796	0.227078
2.120000	4.078376	353.772143	0.237701	-4.022360	298.931946	0.227076
2.130000	4.098628	353.784296	0.237695	-4.017131	299.026496	0.227063
2.140000	4.089142	353.785712	0.237710	-4.014501	299.102521	0.227046
2.150000	4.054421	353.787474	0.237756	-4.016886	299.154993	0.227041
2.160000	4.007357	353.792468	0.237831	-4.026186	299.169217	0.227066
2.170000	3.963433	353.796285	0.237927	-4.044046	299.118852	0.227130
2.180000	3.934443	353.790299	0.238029	-4.071685	298.979564	0.227235
2.190000	3.924296	353.765641	0.238117	-4.108703	298.751142	0.227370
2.200000	3.928441	353.717067	0.238178	-4.151835	298.471751	0.227517
2.210000	3.936961	353.646114	0.238210	-4.195289	298.211083	0.227656
2.220000	3.939954	353.563185	0.238222	-4.233215	298.043057	0.227773
2.230000	3.932778	353.488061	0.238232	-4.262900	298.013131	0.227861
2.240000	3.918775	353.447561	0.238261	-4.286115	298.119571	0.227923
2.250000	3.908166	353.468865	0.238323	-4.307043	298.319022	0.227966
2.260000	3.913586	353.568585	0.238424	-4.327681	298.551269	0.228000
2.270000	3.944212	353.741105	0.238561	-4.343934	298.767110	0.228038
2.280000	4.001056	353.952637	0.238720	-4.345506	298.943749	0.228090
2.290000	4.075643	354.146792	0.238888	-4.320315	299.082189	0.228161
2.300000	4.152967	354.262362	0.239054	-4.261158	299.192629	0.228255
2.310000	4.217733	354.256966	0.239213	-4.170992	299.279369	0.228368
2.320000	4.261042	354.125396	0.239367	-4.064076	299.334571	0.228493
2.330000	4.284118	353.902777	0.239521	-3.962298	299.343419	0.228623
2.340000	4.297069	353.650146	0.239674	-3.887970	299.296174	0.228750
2.350000	4.313447	353.429802	0.239825	-3.855714	299.198508	0.228871
2.360000	4.343797	353.283333	0.239964	-3.866609	299.072682	0.228984
2.370000	4.391661	353.222641	0.240088	-3.907168	298.948421	0.229087
2.380000	4.453719	353.235575	0.240198	-3.953928	298.850003	0.229179
2.390000	4.523235	353.299301	0.240307	-3.981908	298.788740	0.229255
2.400000	4.594462	353.391783	0.240428	-3.973429	298.765078	0.229315
2.410000	4.665615	353.495375	0.240571	-3.923721	298.775948	0.229358
2.420000	4.739076	353.593090	0.240736	-3.841479	298.818898	0.229390
2.430000	4.818847	353.663214	0.240906	-3.744763	298.888784	0.229416
2.440000	4.906514	353.678924	0.241058	-3.654233	298.971252	0.229440
2.450000	4.997822	353.616083	0.241166	-3.586234	299.041696	0.229464
2.460000	5.081896	353.466142	0.241215	-3.547996	299.074324	0.229483
2.470000	5.143987	353.245946	0.241202	-3.536497	299.057006	0.229494
2.480000	5.170782	352.996430	0.241139	-3.541370	299.001637	0.229491
2.490000	5.155861	352.768752	0.241041	-3.550668	298.941945	0.229477
2.500000	5.102612	352.605048	0.240927	-3.557029	298.918976	0.229453
2.510000	5.023182	352.524677	0.240807	-3.561472	298.962202	0.229425
2.520000	4.934004	352.522494	0.240689	-3.572979	299.076072	0.229389
2.530000	4.850072	352.577138	0.240578	-3.603929	299.238004	0.229341
2.540000	4.780569	352.662023	0.240482	-3.663384	299.407715	0.229277
2.550000	4.727471	352.753149	0.240408	-3.751377	299.543026	0.229199
2.560000	4.687028	352.832949	0.240360	-3.857089	299.615276	0.229119
2.570000	4.652700	352.892201	0.240340	-3.961963	299.618351	0.229050
2.580000	4.617927	352.930586	0.240343	-4.046421	299.568294	0.228998
2.590000	4.577966	352.954121	0.240358	-4.097072	299.494271	0.228960
2.600000	4.530884	352.968613	0.240372	-4.111278	299.425002	0.228920
2.610000	4.477871	352.972285	0.240367	-4.097379	299.376614	0.228859
2.620000	4.422676	352.953452	0.240326	-4.070814	299.347483	0.228764
2.630000	4.369887	352.896819	0.240237	-4.047865	299.322665	0.228627
2.640000	4.322544	352.795762	0.240098	-4.039610	299.285487	0.228453
2.650000	4.280384	352.662866	0.239918	-4.048658	299.229428	0.228257
2.660000	4.239921	352.531153	0.239718	-4.070118	299.162769	0.228057
2.670000	4.196510	352.443749	0.239521	-4.096074	299.103255	0.227874
2.680000	4.147181	352.436677	0.239346	-4.120581	299.067107	0.227725
2.690000	4.092595	352.523429	0.239199	-4.141816	299.060551	0.227618
2.700000	4.037078	352.688799	0.239077	-4.160255	299.079302	0.227547
2.710000	3.986916	352.894064	0.238964	-4.175134	299.114592	0.227495
2.720000	3.947949	353.089724	0.238846	-4.182934	299.159484	0.227444
2.730000	3.923633	353.229477	0.238712	-4.179740	299.210408	0.227379
2.740000	3.914225	353.280788	0.238563	-4.165630	299.264324	0.227291
2.750000	3.917071	353.230790	0.238410	-4.147106	299.316178	0.227183
2.760000	3.927559	353.087801	0.238268	-4.134918	299.360720	0.227060
2.770000	3.940230	352.878172	0.238156	-4.138133	299.398460	0.226935
2.780000	3.949783	352.637981	0.238087	-4.158365	299.441490	0.226820
2.790000	3.951928	352.401414	0.238063	-4.188178	299.514080	0.226725
2.800000	3.944147	352.190720	0.238074	-4.214952	299.645496	0.226661
2.810000	3.926366	352.012938	0.238104	-4.227735	299.856646	0.226631
2.820000	3.901334	351.864637	0.238126	-4.222733	300.146092	0.226630
2.830000	3.874390	351.740450	0.238121	-4.204299	300.482924	0.226643
2.840000	3.852369	351.638563	0.238078	-4.181583	300.812300	0.226649
2.850000	3.841665	351.558824	0.238000	-4.163644	301.073726	0.226625
2.860000	3.845905	351.495264	0.237899	-4.156115	301.224733	0.226552
2.870000	3.864045	351.429885	0.237794	-4.160625	301.258512	0.226425
2.880000	3.889912	351.334433	0.237703	-4.176089	301.206813	0.226252
2.890000	3.913951	351.181077	0.237635	-4.200103	301.127382	0.226056
2.900000	3.926899	350.955694	0.237594	-4.229416	301.082980	0.225868
2.910000	3.923819	350.664558	0.237577	-4.259720	301.121766	0.225717
