time (s)	dominant Fap (N)	dominant Fvert (N)	dominant CPap (m)	non-dominant Fap (N)	non-dominant Fvert (N)	non-dominant CPap (m)
0.000000	2.305319	365.144150	0.205530	-3.573121	280.623923	0.190420
0.010000	2.267197	365.391173	0.205525	-3.237632	281.130781	0.190703
0.020000	2.240586	365.636989	0.205529	-2.947884	281.526041	0.190941
0.030000	2.232360	365.875582	0.205546	-2.734132	281.728840	0.191102
0.040000	2.242857	366.096946	0.205577	-2.604638	281.711150	0.191182
0.050000	2.266839	366.290689	0.205617	-2.550308	281.503175	0.191197
0.060000	2.296698	366.450449	0.205656	-2.554378	281.180397	0.191175
0.070000	2.325881	366.575766	0.205686	-2.599097	280.836817	0.191144
0.080000	2.350647	366.670286	0.205699	-2.666350	280.554243	0.191120
0.090000	2.369505	366.737814	0.205699	-2.735917	280.378700	0.191110
0.100000	2.381215	366.778844	0.205692	-2.787030	280.311981	0.191110
0.110000	2.383069	366.789499	0.205691	-2.804797	280.320121	0.191117
0.120000	2.370929	366.763818	0.205699	-2.787324	280.353722	0.191129
0.130000	2.341320	366.699588	0.205714	-2.747587	280.370475	0.191148
0.140000	2.294324	366.606446	0.205725	-2.707769	280.350477	0.191174
0.150000	2.235203	366.512048	0.205717	-2.689394	280.299701	0.191202
0.160000	2.173263	366.460004	0.205678	-2.705154	280.242992	0.191228
0.170000	2.118295	366.495831	0.205608	-2.756159	280.211489	0.191245
0.180000	2.076646	366.644976	0.205512	-2.834062	280.229567	0.191252
0.190000	2.049247	366.894866	0.205403	-2.924969	280.304923	0.191255
0.200000	2.032510	367.193814	0.205296	-3.012793	280.424106	0.191261
0.210000	2.021166	367.470643	0.205207	-3.081875	280.554797	0.191271
0.220000	2.011258	367.665591	0.205151	-3.119734	280.654535	0.191277
0.230000	2.001884	367.754995	0.205141	-3.119917	280.683351	0.191265
0.240000	1.995348	367.755944	0.205184	-3.083658	280.616032	0.191227
0.250000	1.996064	367.710156	0.205272	-3.019173	280.449788	0.191165
0.260000	2.008732	367.659084	0.205392	-2.938926	280.204956	0.191101
0.270000	2.036379	367.626117	0.205519	-2.856432	279.918911	0.191065
0.280000	2.078977	367.614993	0.205638	-2.783925	279.635058	0.191087
0.290000	2.133347	367.622307	0.205739	-2.730850	279.389658	0.191179
0.300000	2.194522	367.653497	0.205830	-2.702309	279.199858	0.191330
0.310000	2.257939	367.730618	0.205925	-2.697239	279.057205	0.191509
0.320000	2.321260	367.886053	0.206037	-2.707480	278.930768	0.191680
0.330000	2.384862	368.145287	0.206174	-2.719362	278.780695	0.191818
0.340000	2.450775	368.508671	0.206333	-2.718043	278.577163	0.191914
0.350000	2.520715	368.943075	0.206499	-2.692815	278.315013	0.191975
0.360000	2.594273	369.389250	0.206656	-2.640603	278.015711	0.192017
0.370000	2.668209	369.782459	0.206789	-2.566003	277.715819	0.192052
0.380000	2.737175	370.076901	0.206894	-2.478507	277.449513	0.192086
0.390000	2.795504	370.262245	0.206976	-2.389060	277.235501	0.192119
0.400000	2.839158	370.364682	0.207049	-2.307771	277.074156	0.192156
0.410000	2.867027	370.433124	0.207124	-2.242817	276.952968	0.192212
0.420000	2.881225	370.518656	0.207213	-2.199485	276.853575	0.192300
0.430000	2.886484	370.657243	0.207314	-2.178861	276.754913	0.192427
0.440000	2.888847	370.861551	0.207417	-2.177150	276.632822	0.192581
0.450000	2.893695	371.121658	0.207508	-2.187167	276.461573	0.192726
0.460000	2.903376	371.411349	0.207572	-2.202049	276.222244	0.192823
0.470000	2.915426	371.697467	0.207596	-2.219091	275.916068	0.192843
0.480000	2.922905	371.951341	0.207577	-2.240720	275.573304	0.192793
0.490000	2.917721	372.160168	0.207525	-2.271434	275.247194	0.192707
0.500000	2.895842	372.333411	0.207455	-2.312676	274.991118	0.192637
0.510000	2.861379	372.499223	0.207389	-2.359561	274.829715	0.192622
0.520000	2.826556	372.691134	0.207350	-2.402127	274.741803	0.192667
0.530000	2.806903	372.932214	0.207353	-2.430237	274.667849	0.192744
0.540000	2.814132	373.225980	0.207405	-2.438566	274.539824	0.192808
0.550000	2.850702	373.557962	0.207501	-2.428406	274.316750	0.192823
0.560000	2.908886	373.903982	0.207628	-2.405777	274.005144	0.192789
0.570000	2.974396	374.238079	0.207768	-2.377879	273.652883	0.192732
0.580000	3.032350	374.536669	0.207902	-2.350249	273.321249	0.192693
0.590000	3.072692	374.780997	0.208011	-2.325813	273.052817	0.192701
0.600000	3.093033	374.961175	0.208089	-2.305623	272.854383	0.192752
0.610000	3.098169	375.081320	0.208137	-2.290270	272.703842	0.192821
0.620000	3.096816	375.161056	0.208167	-2.280759	272.574388	0.192874
0.630000	3.097176	375.228981	0.208194	-2.278133	272.458768	0.192892
0.640000	3.103538	375.308996	0.208231	-2.282381	272.377318	0.192882
0.650000	3.115639	375.406395	0.208277	-2.292089	272.365156	0.192869
0.660000	3.130762	375.502362	0.208323	-2.305623	272.447714	0.192876
0.670000	3.146730	375.561382	0.208353	-2.322706	272.620502	0.192909
0.680000	3.163394	375.548485	0.208351	-2.344078	272.845133	0.192951
0.690000	3.181625	375.447104	0.208312	-2.368486	273.063095	0.192972
0.700000	3.200885	375.267728	0.208244	-2.389450	273.218816	0.192950
0.710000	3.217595	375.043073	0.208164	-2.395713	273.279750	0.192880
0.720000	3.225830	374.813716	0.208090	-2.376792	273.244747	0.192777
0.730000	3.220050	374.613384	0.208035	-2.330409	273.139641	0.192670
0.740000	3.198072	374.461737	0.208000	-2.266164	273.005541	0.192580
0.750000	3.162245	374.365929	0.207977	-2.202172	272.886860	0.192517
0.760000	3.117977	374.325870	0.207956	-2.156370	272.822670	0.192475
0.770000	3.070560	374.336813	0.207924	-2.137775	272.840273	0.192439
0.780000	3.022412	374.387064	0.207873	-2.142633	272.948590	0.192399
0.790000	2.972612	374.454344	0.207797	-2.157118	273.132275	0.192354
0.800000	2.919089	374.506718	0.207692	-2.164601	273.351877	0.192310
0.810000	2.861992	374.511195	0.207559	-2.153412	273.555053	0.192273
0.820000	2.805903	374.446901	0.207406	-2.121240	273.697075	0.192244
0.830000	2.759185	374.314917	0.207247	-2.074513	273.760583	0.192218
0.840000	2.730473	374.137352	0.207098	-2.024037	273.762821	0.192184
0.850000	2.724069	373.944066	0.206972	-1.980249	273.746058	0.192129
0.860000	2.736713	373.753091	0.206875	-1.951178	273.757861	0.192042
0.870000	2.757561	373.555475	0.206804	-1.943706	273.833688	0.191913
0.880000	2.771683	373.313915	0.206749	-1.965741	273.990804	0.191741
0.890000	2.765744	372.977758	0.206699	-2.025771	274.233474	0.191530
0.900000	2.733510	372.508079	0.206644	-2.128235	274.561964	0.191292
0.910000	2.678661	371.900600	0.206582	-2.267052	274.977094	0.191049
0.920000	2.613419	371.194392	0.206511	-2.422287	275.477599	0.190822
0.930000	2.553398	370.460634	0.206435	-2.563948	276.054413	0.190627
0.940000	2.511040	369.775272	0.206356	-2.662545	276.688507	0.190472
0.950000	2.490817	369.187859	0.206278	-2.701333	277.355429	0.190346
0.960000	2.488350	368.701605	0.206199	-2.683544	278.033422	0.190229
0.970000	2.493446	368.274640	0.206114	-2.630590	278.708639	0.190095
0.980000	2.495100	367.841607	0.206013	-2.572300	279.373513	0.189922
0.990000	2.485824	367.344237	0.205887	-2.534484	280.020914	0.189702
1.000000	2.463533	366.755612	0.205731	-2.530016	280.641093	0.189437
1.010000	2.430659	366.087498	0.205548	-2.557194	281.226033	0.189144
1.020000	2.391457	365.379791	0.205347	-2.605021	281.777956	0.188846
1.030000	2.349023	364.679906	0.205143	-2.661634	282.312764	0.188567
1.040000	2.303441	364.023360	0.204946	-2.720892	282.851672	0.188327
1.050000	2.251796	363.424201	0.204760	-2.783721	283.404259	0.188135
1.060000	2.189818	362.877515	0.204581	-2.854219	283.955143	0.187987
1.070000	2.114220	362.370045	0.204402	-2.933725	284.466310	0.187874
1.080000	2.024759	361.891937	0.204218	-3.016925	284.896730	0.187780
1.090000	1.925453	361.443809	0.204030	-3.092364	285.227804	0.187700
1.100000	1.824677	361.036935	0.203842	-3.146826	285.477387	0.187635
1.110000	1.733856	360.688116	0.203663	-3.170933	285.691632	0.187597
1.120000	1.664654	360.412642	0.203499	-3.163016	285.918827	0.187593
1.130000	1.625273	360.218353	0.203351	-3.129503	286.182045	0.187621
1.140000	1.617449	360.102101	0.203220	-3.081789	286.468513	0.187671
1.150000	1.635921	360.048547	0.203105	-3.031076	286.741960	0.187725
1.160000	1.671011	360.031013	0.203012	-2.983441	286.968380	0.187776
1.170000	1.713041	360.014726	0.202951	-2.937344	287.137054	0.187827
1.180000	1.756075	359.963303	0.202931	-2.884791	287.263221	0.187887
1.190000	1.798878	359.848679	0.202953	-2.815868	287.372508	0.187967
1.200000	1.842933	359.662528	0.203013	-2.724823	287.479825	0.188065
1.210000	1.889343	359.424506	0.203097	-2.614981	287.578163	0.188161
1.220000	1.937048	359.181672	0.203192	-2.500097	287.644637	0.188232
1.230000	1.983463	358.995923	0.203285	-2.401169	287.658770	0.188259
1.240000	2.026638	358.922092	0.203369	-2.339774	287.619975	0.188242
1.250000	2.066888	358.985201	0.203443	-2.330570	287.552073	0.188202
1.260000	2.106457	359.167433	0.203506	-2.375952	287.491251	0.188168
1.270000	2.147428	359.411852	0.203558	-2.464756	287.464666	0.188158
1.280000	2.189462	359.642402	0.203596	-2.575292	287.473519	0.188169
1.290000	2.228983	359.792064	0.203614	-2.681480	287.492219	0.188170
1.300000	2.260326	359.827135	0.203607	-2.760179	287.485086	0.188125
1.310000	2.278098	359.757377	0.203573	-2.797660	287.430244	0.188014
1.320000	2.279418	359.628677	0.203515	-2.793516	287.334940	0.187846
1.330000	2.265039	359.503057	0.203441	-2.760852	287.231685	0.187661
1.340000	2.239064	359.436064	0.203361	-2.722332	287.157082	0.187507
1.350000	2.207574	359.461164	0.203287	-2.702719	287.126572	0.187418
1.360000	2.176656	359.585834	0.203224	-2.719978	287.120903	0.187393
1.370000	2.150298	359.797694	0.203169	-2.778024	287.092423	0.187404
1.380000	2.128749	360.074812	0.203117	-2.864179	286.987087	0.187412
1.390000	2.108259	360.394238	0.203059	-2.952894	286.769453	0.187386
1.400000	2.082969	360.736169	0.202988	-3.014788	286.437707	0.187319
1.410000	2.048604	361.085042	0.202900	-3.027690	286.022581	0.187225
1.420000	2.006075	361.430253	0.202795	-2.985236	285.572684	0.187128
1.430000	1.962364	361.767502	0.202681	-2.899540	285.134482	0.187048
1.440000	1.927316	362.099293	0.202565	-2.797045	284.736272	0.186990
1.450000	1.907736	362.432363	0.202457	-2.709420	284.382624	0.186948
1.460000	1.902476	362.771949	0.202364	-2.663043	284.060517	0.186906
1.470000	1.902122	363.116145	0.202289	-2.670603	283.752393	0.186854
1.480000	1.894007	363.454987	0.202231	-2.727401	283.447411	0.186792
1.490000	1.869673	363.776386	0.202190	-2.813336	283.143369	0.186727
1.500000	1.830215	364.075925	0.202162	-2.899997	282.838618	0.186670
1.510000	1.786260	364.364234	0.202148	-2.960711	282.521614	0.186628
1.520000	1.752619	364.666945	0.202148	-2.980329	282.168766	0.186594
1.530000	1.740642	365.016971	0.202162	-2.961174	281.755410	0.186561
1.540000	1.752351	365.442983	0.202187	-2.922336	281.273979	0.186520
1.550000	1.779302	365.959164	0.202223	-2.891563	280.746174	0.186476
1.560000	1.806670	366.560235	0.202267	-2.892257	280.218593	0.186444
1.570000	1.820442	367.223741	0.202321	-2.931086	279.742280	0.186444
1.580000	1.814086	367.918671	0.202387	-2.992571	279.347885	0.186495
1.590000	1.791328	368.615919	0.202467	-3.044368	279.031257	0.186603
1.600000	1.763684	369.294230	0.202563	-3.051605	278.757382	0.186763
1.610000	1.744178	369.938033	0.202675	-2.993517	278.479335	0.186953
1.620000	1.740800	370.530066	0.202797	-2.873896	278.160753	0.187148
1.630000	1.753276	371.046527	0.202916	-2.720116	277.789698	0.187323
1.640000	1.774651	371.460895	0.203018	-2.571758	277.377705	0.187462
1.650000	1.796270	371.755701	0.203090	-2.465245	276.946575	0.187557
1.660000	1.812983	371.935419	0.203124	-2.421990	276.512257	0.187612
1.670000	1.825662	372.032721	0.203125	-2.444186	276.076522	0.187634
1.680000	1.839991	372.104093	0.203105	-2.517574	275.631800	0.187634
1.690000	1.862523	372.215813	0.203086	-2.617853	275.175349	0.187623
1.700000	1.896236	372.425068	0.203088	-2.717797	274.721673	0.187614
1.710000	1.937889	372.762991	0.203122	-2.793798	274.302345	0.187621
1.720000	1.978585	373.226095	0.203186	-2.831190	273.950740	0.187651
1.730000	2.007507	373.779638	0.203263	-2.827092	273.680114	0.187707
1.740000	2.017219	374.371305	0.203330	-2.789473	273.469058	0.187786
1.750000	2.007962	374.948813	0.203369	-2.732543	273.264621	0.187877
1.760000	1.988639	375.473524	0.203376	-2.670650	273.003075	0.187967
1.770000	1.973699	375.924973	0.203366	-2.613717	272.638115	0.188048
1.780000	1.977148	376.296490	0.203369	-2.566028	272.162195	0.188113
1.790000	2.006424	376.586845	0.203413	-2.527928	271.610734	0.188168
1.800000	2.059048	376.794408	0.203516	-2.498582	271.048298	0.188220
1.810000	2.123791	376.917950	0.203680	-2.478119	270.544824	0.188282
1.820000	2.185920	376.962882	0.203892	-2.468534	270.153254	0.188364
1.830000	2.234106	376.946933	0.204134	-2.473426	269.896972	0.188472
1.840000	2.265757	376.899116	0.204391	-2.496600	269.769512	0.188607
1.850000	2.288398	376.850914	0.204650	-2.539641	269.744022	0.188764
1.860000	2.316734	376.825010	0.204907	-2.599104	269.787121	0.188928
1.870000	2.367024	376.828897	0.205156	-2.664750	269.871099	0.189085
1.880000	2.451250	376.856800	0.205395	-2.720325	269.979864	0.189218
1.890000	2.573066	376.897058	0.205624	-2.747586	270.107472	0.189317
1.900000	2.726374	376.938763	0.205848	-2.732716	270.252010	0.189380
1.910000	2.896510	376.973217	0.206075	-2.672700	270.409710	0.189411
1.920000	3.063739	376.990637	0.206310	-2.578422	270.573318	0.189422
1.930000	3.208476	376.976235	0.206552	-2.472108	270.735833	0.189427
1.940000	3.316983	376.909729	0.206788	-2.379478	270.897373	0.189437
1.950000	3.385571	376.769455	0.206999	-2.320261	271.070755	0.189461
1.960000	3.421379	376.539257	0.207167	-2.302082	271.281440	0.189505
1.970000	3.439130	376.214941	0.207280	-2.320690	271.560039	0.189572
1.980000	3.455012	375.807151	0.207339	-2.365315	271.929644	0.189664
1.990000	3.480225	375.338809	0.207355	-2.424807	272.393565	0.189780
2.000000	3.516815	374.837880	0.207347	-2.490660	272.929656	0.189916
2.010000	3.557524	374.329370	0.207335	-2.556315	273.494757	0.190060
2.020000	3.589810	373.831292	0.207336	-2.615322	274.038123	0.190193
2.030000	3.602432	373.356140	0.207363	-2.661259	274.518465	0.190294
2.040000	3.591690	372.914268	0.207421	-2.690031	274.917620	0.190350
2.050000	3.564202	372.513358	0.207509	-2.702411	275.245713	0.190356
2.060000	3.534497	372.151469	0.207614	-2.704100	275.536577	0.190322
2.070000	3.518395	371.807955	0.207717	-2.702607	275.835980	0.190267
2.080000	3.525514	371.440931	0.207793	-2.703149	276.187151	0.190213
2.090000	3.554809	370.997855	0.207821	-2.706943	276.618218	0.190177
2.100000	3.595309	370.437499	0.207795	-2.713428	277.134954	0.190163
2.110000	3.631335	369.752733	0.207721	-2.724481	277.720300	0.190162
2.120000	3.649270	368.980686	0.207626	-2.746456	278.340021	0.190154
2.130000	3.642586	368.192736	0.207537	-2.787102	278.952171	0.190115
2.140000	3.613134	367.467870	0.207477	-2.848603	279.517351	0.190026
2.150000	3.568652	366.862293	0.207450	-2.921903	280.007172	0.189884
2.160000	3.518188	366.390265	0.207446	-2.987494	280.409414	0.189702
2.170000	3.467974	366.025268	0.207440	-3.023671	280.729518	0.189505
2.180000	3.419892	365.719946	0.207410	-3.017729	280.988645	0.189322
2.190000	3.373118	365.433170	0.207346	-2.973306	281.218863	0.189172
2.200000	3.327540	365.148602	0.207252	-2.909555	281.456293	0.189063
2.210000	3.286374	364.874293	0.207143	-2.853047	281.733611	0.188983
2.220000	3.255975	364.625025	0.207039	-2.827268	282.073657	0.188914
2.230000	3.242820	364.400411	0.206954	-2.844984	282.485622	0.188836
2.240000	3.249641	364.174446	0.206891	-2.906253	282.964455	0.188734
2.250000	3.273222	363.904180	0.206844	-3.001588	283.493306	0.188604
2.260000	3.305164	363.552389	0.206803	-3.117531	284.048118	0.188451
2.270000	3.334970	363.110101	0.206763	-3.241494	284.602878	0.188283
2.280000	3.353591	362.605080	0.206722	-3.363912	285.133824	0.188108
2.290000	3.355758	362.090748	0.206682	-3.477876	285.621482	0.187927
2.300000	3.340446	361.621317	0.206648	-3.578035	286.050819	0.187745
2.310000	3.309916	361.226697	0.206614	-3.660512	286.410972	0.187563
2.320000	3.268253	360.901126	0.206571	-3.723950	286.696061	0.187388
2.330000	3.220279	360.612057	0.206505	-3.770183	286.907388	0.187228
2.340000	3.171155	360.324315	0.206407	-3.803249	287.055673	0.187090
2.350000	3.126391	360.025053	0.206283	-3.826959	287.161113	0.186983
2.360000	3.091700	359.733753	0.206148	-3.842526	287.249770	0.186914
2.370000	3.072299	359.490184	0.206029	-3.847721	287.346736	0.186885
2.380000	3.071664	359.327455	0.205948	-3.838131	287.468340	0.186896
2.390000	3.090089	359.247802	0.205913	-3.810147	287.616100	0.186944
2.400000	3.123670	359.217863	0.205919	-3.764426	287.774648	0.187019
2.410000	3.164443	359.187748	0.205947	-3.707881	287.915319	0.187111
2.420000	3.202183	359.122499	0.205981	-3.652471	288.006039	0.187207
2.430000	3.227618	359.026140	0.206012	-3.610705	288.025588	0.187300
2.440000	3.235808	358.942987	0.206042	-3.589954	287.976375	0.187388
2.450000	3.227984	358.934785	0.206077	-3.588834	287.887677	0.187476
2.460000	3.210737	359.046630	0.206124	-3.597834	287.804422	0.187570
2.470000	3.192988	359.280773	0.206180	-3.603821	287.765103	0.187674
2.480000	3.182444	359.592316	0.206238	-3.595856	287.780919	0.187781
2.490000	3.183373	359.907844	0.206286	-3.569366	287.829511	0.187877
2.500000	3.196259	360.155421	0.206321	-3.527255	287.868182	0.187945
2.510000	3.218489	360.289670	0.206344	-3.478514	287.858830	0.187976
2.520000	3.244882	360.301267	0.206364	-3.435611	287.789321	0.187976
2.530000	3.267922	360.211075	0.206387	-3.411298	287.679054	0.187957
2.540000	3.278700	360.057075	0.206411	-3.414782	287.567010	0.187934
2.550000	3.269544	359.882264	0.206426	-3.447798	287.490741	0.187913
2.560000	3.237790	359.726123	0.206418	-3.502461	287.468261	0.187892
2.570000	3.188535	359.618100	0.206375	-3.562949	287.491084	0.187861
2.580000	3.134148	359.572494	0.206296	-3.611170	287.529934	0.187808
2.590000	3.089998	359.587581	0.206189	-3.633840	287.549225	0.187732
2.600000	3.068139	359.651664	0.206072	-3.627220	287.523766	0.187640
2.610000	3.071970	359.753673	0.205964	-3.597293	287.450527	0.187547
2.620000	3.094477	359.890895	0.205884	-3.556044	287.349700	0.187473
2.630000	3.120989	360.067633	0.205839	-3.516603	287.253371	0.187433
2.640000	3.135376	360.285870	0.205830	-3.489869	287.186430	0.187429
2.650000	3.127137	360.536077	0.205843	-3.483417	287.149683	0.187448
2.660000	3.096285	360.796339	0.205857	-3.501678	287.115252	0.187467
2.670000	3.053685	361.041088	0.205857	-3.545847	287.038078	0.187456
2.680000	3.016459	361.252870	0.205833	-3.612854	286.878065	0.187395
2.690000	3.000420	361.428313	0.205796	-3.694309	286.620977	0.187285
2.700000	3.013045	361.573942	0.205768	-3.777130	286.286775	0.187148
2.710000	3.050298	361.694970	0.205776	-3.846989	285.921386	0.187021
2.720000	3.098791	361.785582	0.205837	-3.893706	285.577296	0.186944
2.730000	3.142192	361.828952	0.205950	-3.915890	285.293872	0.186939
2.740000	3.168822	361.809306	0.206095	-3.921780	285.086870	0.187011
2.750000	3.176873	361.729806	0.206240	-3.925127	284.949926	0.187142
2.760000	3.174888	361.624477	0.206359	-3.937780	284.863973	0.187306
2.770000	3.177521	361.554281	0.206441	-3.962813	284.807678	0.187478
2.780000	3.198879	361.586406	0.206494	-3.991908	284.763588	0.187645
2.790000	3.246801	361.766487	0.206539	-4.008539	284.718698	0.187805
2.800000	3.320508	362.098735	0.206598	-3.995388	284.661684	0.187965
2.810000	3.412053	362.544926	0.206692	-3.942191	284.580482	0.188135
2.820000	3.510113	363.042122	0.206832	-3.850104	284.463050	0.188322
2.830000	3.604079	363.528412	0.207022	-3.730785	284.301666	0.188526
2.840000	3.686929	363.962678	0.207258	-3.601202	284.098134	0.188740
2.850000	3.756380	364.329988	0.207525	-3.477136	283.865607	0.188955
2.860000	3.814519	364.633705	0.207801	-3.368386	283.624069	0.189162
2.870000	3.866460	364.882315	0.208057	-3.277400	283.390699	0.189354
2.880000	3.918606	365.079929	0.208272	-3.201323	283.170538	0.189527
2.890000	3.976931	365.225304	0.208438	-3.136051	282.953459	0.189679
2.900000	4.045331	365.318408	0.208562	-3.080199	282.719564	0.189810
2.910000	4.124023	365.369195	0.208667	-3.036948	282.449779	0.189919
