time (s)	dominant Fap (N)	dominant Fvert (N)	dominant CPap (m)	non-dominant Fap (N)	non-dominant Fvert (N)	non-dominant CPap (m)
0.000000	8.216108	379.810266	0.248580	-12.075854	427.627172	0.237771
0.010000	8.237213	379.341164	0.248458	-11.907751	427.669563	0.237359
0.020000	8.263181	378.951279	0.248352	-11.743925	427.656672	0.237012
0.030000	8.299154	378.696976	0.248270	-11.595238	427.549104	0.236772
0.040000	8.350424	378.593822	0.248215	-11.480524	427.337382	0.236645
0.050000	8.419917	378.616285	0.248182	-11.419995	427.047078	0.236603
0.060000	8.505673	378.714445	0.248161	-11.424704	426.731650	0.236604
0.070000	8.600320	378.840936	0.248144	-11.488596	426.452795	0.236605
0.080000	8.692986	378.975257	0.248126	-11.588198	426.255141	0.236584
0.090000	8.772229	379.132981	0.248104	-11.690443	426.147105	0.236543
0.100000	8.828076	379.355336	0.248076	-11.764483	426.097889	0.236501
0.110000	8.852578	379.685540	0.248041	-11.791382	426.051868	0.236482
0.120000	8.839991	380.144992	0.247990	-11.767291	425.951564	0.236507
0.130000	8.788248	380.720972	0.247919	-11.699701	425.756106	0.236583
0.140000	8.702064	381.370148	0.247829	-11.600180	425.446387	0.236704
0.150000	8.595965	382.034425	0.247733	-11.478359	425.017819	0.236856
0.160000	8.494381	382.661660	0.247656	-11.340129	424.469766	0.237023
0.170000	8.426878	383.223362	0.247625	-11.189612	423.801856	0.237199
0.180000	8.419215	383.722994	0.247662	-11.031980	423.020990	0.237382
0.190000	8.483594	384.191177	0.247776	-10.874413	422.153613	0.237582
0.200000	8.612457	384.668827	0.247953	-10.724654	421.252548	0.237806
0.210000	8.778884	385.185148	0.248165	-10.588736	420.390172	0.238057
0.220000	8.943867	385.741102	0.248377	-10.469679	419.638471	0.238327
0.230000	9.068045	386.307214	0.248558	-10.367604	419.045618	0.238599
0.240000	9.123878	386.837224	0.248690	-10.280402	418.621987	0.238855
0.250000	9.104264	387.290175	0.248778	-10.204066	418.343535	0.239084
0.260000	9.024628	387.648316	0.248845	-10.132839	418.169975	0.239288
0.270000	8.917519	387.920332	0.248920	-10.060094	418.065955	0.239485
0.280000	8.821362	388.128117	0.249034	-9.980379	418.012058	0.239701
0.290000	8.767555	388.285759	0.249208	-9.891666	418.000360	0.239961
0.300000	8.771139	388.384876	0.249445	-9.796140	418.021152	0.240278
0.310000	8.828683	388.396779	0.249736	-9.698587	418.054200	0.240649
0.320000	8.923338	388.290972	0.250061	-9.603294	418.073977	0.241052
0.330000	9.033444	388.058150	0.250400	-9.511652	418.066442	0.241459
0.340000	9.140097	387.722101	0.250731	-9.422411	418.044494	0.241839
0.350000	9.230923	387.331768	0.251035	-9.334793	418.048934	0.242168
0.360000	9.300367	386.937870	0.251289	-9.252595	418.131980	0.242426
0.370000	9.348516	386.568830	0.251475	-9.186241	418.332980	0.242602
0.380000	9.379977	386.221091	0.251576	-9.150485	418.661281	0.242689
0.390000	9.402665	385.869036	0.251591	-9.157878	419.095635	0.242685
0.400000	9.425475	385.486847	0.251535	-9.211239	419.598326	0.242593
0.410000	9.454614	385.067500	0.251438	-9.299777	420.133744	0.242424
0.420000	9.490138	384.627235	0.251338	-9.401998	420.680506	0.242199
0.430000	9.525179	384.194369	0.251263	-9.494316	421.232079	0.241944
0.440000	9.549215	383.791603	0.251231	-9.560421	421.788185	0.241696
0.450000	9.554108	383.423910	0.251240	-9.595812	422.343723	0.241492
0.460000	9.539348	383.078443	0.251281	-9.605080	422.882120	0.241372
0.470000	9.513054	382.733962	0.251343	-9.594252	423.376817	0.241365
0.480000	9.487886	382.372163	0.251420	-9.563577	423.800194	0.241489
0.490000	9.474454	381.984754	0.251517	-9.505754	424.135796	0.241746
0.500000	9.476407	381.574927	0.251640	-9.411096	424.388585	0.242119
0.510000	9.490135	381.155098	0.251796	-9.276621	424.588900	0.242576
0.520000	9.508691	380.742903	0.251982	-9.113322	424.788101	0.243073
0.530000	9.526725	380.355888	0.252187	-8.946606	425.046701	0.243561
0.540000	9.542917	380.004695	0.252391	-8.808741	425.418545	0.243995
0.550000	9.558631	379.685727	0.252574	-8.726673	425.936039	0.244338
0.560000	9.574612	379.376516	0.252719	-8.710862	426.600955	0.244573
0.570000	9.588970	379.038335	0.252816	-8.749992	427.383286	0.244705
0.580000	9.598361	378.628601	0.252864	-8.813593	428.228019	0.244759
0.590000	9.601373	378.119854	0.252870	-8.861657	429.067486	0.244777
0.600000	9.600981	377.515923	0.252849	-8.858320	429.835610	0.244801
0.610000	9.603542	376.854680	0.252818	-8.785157	430.480475	0.244863
0.620000	9.614614	376.193238	0.252793	-8.648994	430.973117	0.244976
0.630000	9.634601	375.582195	0.252782	-8.480232	431.312070	0.245128
0.640000	9.657549	375.043316	0.252788	-8.321566	431.523707	0.245291
0.650000	9.674114	374.563998	0.252807	-8.211946	431.657854	0.245426
0.660000	9.676585	374.112119	0.252829	-8.173445	431.777904	0.245497
0.670000	9.662429	373.662368	0.252845	-8.206839	431.946105	0.245482
0.680000	9.634142	373.218253	0.252846	-8.296431	432.207308	0.245371
0.690000	9.596102	372.816930	0.252827	-8.419649	432.576545	0.245171
0.700000	9.551288	372.514179	0.252785	-8.555625	433.035241	0.244901
0.710000	9.500422	372.357366	0.252717	-8.689389	433.537509	0.244590
0.720000	9.443892	372.359543	0.252622	-8.811932	434.023655	0.244271
0.730000	9.384586	372.487091	0.252501	-8.918316	434.435516	0.243978
0.740000	9.329293	372.667652	0.252362	-9.005620	434.728818	0.243737
0.750000	9.287602	372.816277	0.252219	-9.071383	434.880369	0.243563
0.760000	9.268942	372.868496	0.252089	-9.112888	434.890081	0.243455
0.770000	9.279283	372.804258	0.251990	-9.128010	434.778514	0.243404
0.780000	9.318782	372.650635	0.251937	-9.117817	434.580492	0.243398
0.790000	9.380999	372.462867	0.251939	-9.089425	434.335898	0.243423
0.800000	9.453917	372.295457	0.251994	-9.056297	434.080172	0.243473
0.810000	9.522806	372.179334	0.252093	-9.034215	433.838040	0.243542
0.820000	9.574539	372.115041	0.252221	-9.034392	433.623216	0.243626
0.830000	9.602111	372.080755	0.252359	-9.057918	433.444099	0.243716
0.840000	9.607344	372.046550	0.252491	-9.095482	433.311770	0.243798
0.850000	9.600061	371.986694	0.252601	-9.132945	433.244361	0.243858
0.860000	9.593700	371.886881	0.252680	-9.159382	433.263197	0.243887
0.870000	9.599429	371.747236	0.252721	-9.172486	433.381314	0.243878
0.880000	9.621754	371.582239	0.252723	-9.177953	433.591212	0.243834
0.890000	9.657731	371.417391	0.252690	-9.183586	433.861122	0.243758
0.900000	9.699650	371.282313	0.252633	-9.192616	434.144797	0.243658
0.910000	9.739230	371.201571	0.252563	-9.201296	434.400719	0.243545
0.920000	9.770870	371.186478	0.252496	-9.202695	434.609253	0.243432
0.930000	9.792586	371.231394	0.252444	-9.193802	434.776803	0.243335
0.940000	9.804927	371.316069	0.252415	-9.180338	434.924477	0.243267
0.950000	9.809254	371.412738	0.252414	-9.175132	435.068817	0.243239
0.960000	9.806807	371.495037	0.252440	-9.190546	435.206546	0.243250
0.970000	9.799023	371.546143	0.252485	-9.229737	435.311939	0.243292
0.980000	9.788558	371.564480	0.252540	-9.282451	435.347791	0.243351
0.990000	9.779846	371.565317	0.252591	-9.328184	435.284215	0.243408
1.000000	9.778265	371.576039	0.252625	-9.345296	435.116289	0.243449
1.010000	9.787865	371.624193	0.252631	-9.321662	434.872103	0.243460
1.020000	9.808570	371.721661	0.252604	-9.262042	434.606420	0.243436
1.030000	9.834445	371.852872	0.252541	-9.188817	434.381435	0.243375
1.040000	9.854393	371.975359	0.252445	-9.135160	434.242883	0.243278
1.050000	9.855540	372.035171	0.252324	-9.132608	434.203210	0.243148
1.060000	9.828045	371.990771	0.252183	-9.197814	434.240583	0.242988
1.070000	9.768986	371.833225	0.252032	-9.324655	434.314055	0.242808
1.080000	9.683279	371.592051	0.251877	-9.486156	434.386228	0.242617
1.090000	9.581336	371.324177	0.251726	-9.645942	434.440967	0.242427
1.100000	9.475174	371.092674	0.251583	-9.773655	434.487092	0.242247
1.110000	9.375374	370.946208	0.251448	-9.856508	434.547053	0.242080
1.120000	9.290014	370.907511	0.251320	-9.901441	434.637689	0.241926
1.130000	9.224710	370.972712	0.251194	-9.927776	434.754150	0.241781
1.140000	9.182020	371.118348	0.251063	-9.955222	434.866336	0.241639
1.150000	9.159781	371.311587	0.250924	-9.993920	434.930380	0.241496
1.160000	9.150041	371.520366	0.250778	-10.041261	434.909244	0.241344
1.170000	9.140925	371.721549	0.250634	-10.086207	434.791098	0.241182
1.180000	9.121945	371.905810	0.250501	-10.117897	434.595624	0.241008
1.190000	9.090200	372.078124	0.250388	-10.133351	434.365767	0.240826
1.200000	9.053338	372.253063	0.250296	-10.139814	434.150565	0.240643
1.210000	9.026525	372.445392	0.250221	-10.150617	433.988041	0.240467
1.220000	9.024329	372.659274	0.250158	-10.177404	433.894868	0.240312
1.230000	9.051947	372.881838	0.250103	-10.223784	433.864823	0.240190
1.240000	9.101052	373.086307	0.250057	-10.284067	433.874530	0.240108
1.250000	9.153049	373.244771	0.250030	-10.346981	433.893444	0.240072
1.260000	9.188165	373.343756	0.250028	-10.401041	433.894360	0.240081
1.270000	9.195368	373.392320	0.250060	-10.438045	433.860541	0.240132
1.280000	9.177788	373.416112	0.250127	-10.453484	433.786809	0.240221
1.290000	9.151093	373.440071	0.250223	-10.445088	433.675167	0.240347
1.300000	9.136134	373.470865	0.250343	-10.411405	433.529144	0.240509
1.310000	9.149868	373.491421	0.250478	-10.351418	433.351812	0.240706
1.320000	9.198839	373.472600	0.250621	-10.265096	433.149086	0.240937
1.330000	9.277716	373.395661	0.250769	-10.154423	432.934821	0.241198
1.340000	9.372694	373.271485	0.250916	-10.024465	432.732054	0.241479
1.350000	9.467466	373.143692	0.251060	-9.883863	432.567530	0.241764
1.360000	9.548762	373.072539	0.251200	-9.743850	432.461953	0.242038
1.370000	9.609382	373.108436	0.251334	-9.615410	432.421837	0.242286
1.380000	9.648347	373.270166	0.251463	-9.505569	432.437817	0.242500
1.390000	9.669113	373.539230	0.251585	-9.415044	432.489993	0.242681
1.400000	9.677146	373.871119	0.251703	-9.339106	432.556375	0.242837
1.410000	9.677660	374.214442	0.251816	-9.271605	432.618846	0.242972
1.420000	9.673933	374.526255	0.251923	-9.209919	432.663403	0.243088
1.430000	9.666562	374.777106	0.252019	-9.157631	432.676283	0.243180
1.440000	9.654000	374.947763	0.252098	-9.122929	432.641063	0.243239
1.450000	9.634320	375.024996	0.252149	-9.113443	432.541010	0.243261
1.460000	9.607448	375.002618	0.252167	-9.130800	432.366444	0.243246
1.470000	9.576751	374.887700	0.252150	-9.168427	432.122473	0.243206
1.480000	9.549060	374.706153	0.252110	-9.213794	431.831854	0.243158
1.490000	9.532907	374.501608	0.252062	-9.253281	431.530824	0.243123
1.500000	9.535544	374.326865	0.252020	-9.276624	431.259622	0.243115
1.510000	9.559843	374.232680	0.251994	-9.278976	431.051391	0.243139
1.520000	9.602345	374.259184	0.251980	-9.260620	430.922990	0.243193
1.530000	9.653309	374.430930	0.251968	-9.225595	430.870358	0.243268
1.540000	9.698983	374.752599	0.251951	-9.180332	430.870057	0.243353
1.550000	9.725570	375.203497	0.251926	-9.132392	430.887056	0.243447
1.560000	9.723780	375.734147	0.251902	-9.088713	430.886371	0.243550
1.570000	9.692406	376.271612	0.251892	-9.053290	430.843997	0.243669
1.580000	9.639377	376.737070	0.251909	-9.025454	430.752424	0.243805
1.590000	9.579439	377.070870	0.251957	-9.000479	430.618837	0.243951
1.600000	9.528974	377.253471	0.252028	-8.973056	430.458284	0.244089
1.610000	9.499893	377.310875	0.252103	-8.941895	430.286802	0.244197
1.620000	9.495137	377.300656	0.252161	-8.912305	430.118644	0.244258
1.630000	9.507714	377.284646	0.252188	-8.894500	429.968013	0.244261
1.640000	9.523712	377.301318	0.252177	-8.898158	429.851944	0.244210
1.650000	9.528078	377.351318	0.252134	-8.926502	429.789845	0.244121
1.660000	9.510805	377.403007	0.252067	-8.973695	429.797588	0.244011
1.670000	9.471000	377.414231	0.251982	-9.027367	429.878199	0.243900
1.680000	9.417058	377.357478	0.251886	-9.074904	430.014636	0.243796
1.690000	9.362794	377.233740	0.251780	-9.109941	430.170553	0.243695
1.700000	9.321176	377.067462	0.251665	-9.135622	430.301363	0.243583
1.710000	9.298382	376.886779	0.251544	-9.163261	430.371927	0.243439
1.720000	9.290876	376.702434	0.251422	-9.207509	430.372481	0.243245
1.730000	9.286839	376.499548	0.251306	-9.280347	430.324567	0.242993
1.740000	9.271382	376.248211	0.251202	-9.386097	430.273960	0.242688
1.750000	9.233283	375.926643	0.251117	-9.518839	430.274100	0.242355
1.760000	9.170294	375.541959	0.251054	-9.663157	430.367099	0.242029
1.770000	9.090720	375.134187	0.251011	-9.798470	430.569101	0.241749
1.780000	9.010634	374.759278	0.250980	-9.905881	430.864548	0.241547
1.790000	8.948039	374.460336	0.250952	-9.974683	431.211535	0.241438
1.800000	8.916605	374.244506	0.250920	-10.005028	431.557514	0.241420
1.810000	8.921612	374.080334	0.250881	-10.005052	431.860311	0.241474
1.820000	8.959470	373.918145	0.250843	-9.984120	432.105268	0.241576
1.830000	9.020473	373.721621	0.250815	-9.946525	432.308941	0.241706
1.840000	9.093047	373.491444	0.250810	-9.889601	432.505694	0.241852
1.850000	9.167484	373.266720	0.250836	-9.807075	432.723560	0.242013
1.860000	9.237826	373.103970	0.250895	-9.694867	432.963618	0.242191
1.870000	9.301727	373.047082	0.250982	-9.555042	433.196283	0.242386
1.880000	9.359047	373.105676	0.251086	-9.395370	433.377601	0.242598
1.890000	9.410197	373.252051	0.251194	-9.225417	433.475229	0.242825
1.900000	9.455019	373.434746	0.251295	-9.052762	433.487175	0.243064
1.910000	9.492534	373.598760	0.251383	-8.882705	433.441649	0.243311
1.920000	9.521569	373.702336	0.251456	-8.721683	433.379603	0.243560
1.930000	9.541929	373.725385	0.251520	-8.580932	433.332583	0.243804
1.940000	9.555504	373.669793	0.251580	-8.475907	433.310012	0.244027
1.950000	9.566454	373.554217	0.251640	-8.419937	433.302039	0.244216
1.960000	9.579839	373.405869	0.251705	-8.415599	433.293404	0.244358
1.970000	9.598810	373.251196	0.251772	-8.450198	433.277533	0.244450
1.980000	9.621619	373.107531	0.251841	-8.499751	433.261669	0.244496
1.990000	9.640343	372.978674	0.251903	-8.540065	433.260990	0.244507
2.000000	9.642764	372.857322	0.251950	-8.558343	433.287122	0.244502
2.010000	9.617079	372.734853	0.251971	-8.558265	433.339357	0.244494
2.020000	9.557279	372.614282	0.251958	-8.555829	433.403690	0.244494
2.030000	9.466263	372.518466	0.251906	-8.569027	433.458490	0.244503
2.040000	9.355031	372.486568	0.251814	-8.607632	433.481458	0.244512
2.050000	9.238642	372.558161	0.251685	-8.668510	433.453727	0.244510
2.060000	9.131485	372.752394	0.251526	-8.738043	433.361462	0.244482
2.070000	9.044354	373.053506	0.251346	-8.799209	433.198174	0.244417
2.080000	8.984034	373.410879	0.251160	-8.838800	432.969366	0.244311
2.090000	8.954146	373.753860	0.250986	-8.851133	432.697095	0.244173
2.100000	8.955479	374.014388	0.250841	-8.837429	432.419780	0.244022
2.110000	8.985197	374.148029	0.250738	-8.802727	432.184107	0.243882
2.120000	9.035823	374.146491	0.250677	-8.752995	432.030367	0.243777
2.130000	9.095545	374.038850	0.250647	-8.694001	431.977168	0.243720
2.140000	9.150610	373.881785	0.250634	-8.631841	432.013357	0.243708
2.150000	9.189148	373.741024	0.250628	-8.573995	432.102372	0.243721
2.160000	9.204632	373.668584	0.250622	-8.529683	432.197848	0.243732
2.170000	9.197191	373.683663	0.250616	-8.508855	432.262904	0.243713
2.180000	9.172164	373.766247	0.250608	-8.519851	432.283410	0.243646
2.190000	9.136931	373.868251	0.250591	-8.566459	432.269400	0.243528
2.200000	9.097996	373.937979	0.250550	-8.645509	432.245753	0.243369
2.210000	9.059850	373.945634	0.250472	-8.746143	432.238572	0.243187
2.220000	9.025707	373.896666	0.250356	-8.851439	432.264140	0.243005
2.230000	8.998884	373.826788	0.250211	-8.942297	432.323836	0.242846
2.240000	8.983426	373.782602	0.250061	-9.002663	432.404479	0.242726
2.250000	8.983309	373.798661	0.249930	-9.024537	432.482246	0.242652
2.260000	9.000592	373.882358	0.249837	-9.010889	432.529374	0.242619
2.270000	9.033415	374.012985	0.249784	-8.975022	432.523594	0.242613
2.280000	9.074792	374.153665	0.249760	-8.936307	432.458608	0.242611
2.290000	9.112915	374.268476	0.249744	-8.913870	432.350910	0.242591
2.300000	9.133361	374.335496	0.249711	-8.920822	432.237616	0.242539
2.310000	9.123047	374.350310	0.249644	-8.961105	432.163720	0.242449
2.320000	9.074825	374.321018	0.249531	-9.029717	432.163616	0.242329
2.330000	8.990772	374.260054	0.249375	-9.115772	432.246138	0.242190
2.340000	8.882366	374.177827	0.249185	-9.207018	432.391036	0.242048
2.350000	8.767033	374.080059	0.248979	-9.294042	432.558345	0.241915
2.360000	8.662433	373.968434	0.248779	-9.372486	432.704664	0.241799
2.370000	8.580913	373.844190	0.248601	-9.442402	432.797086	0.241702
2.380000	8.526371	373.714491	0.248459	-9.505326	432.818447	0.241619
2.390000	8.494525	373.599405	0.248353	-9.560977	432.764392	0.241544
2.400000	8.476135	373.534018	0.248280	-9.605813	432.638029	0.241467
2.410000	8.461635	373.560054	0.248230	-9.634552	432.447783	0.241383
2.420000	8.445224	373.707041	0.248195	-9.643700	432.209109	0.241291
2.430000	8.426802	373.971871	0.248167	-9.634499	431.946083	0.241193
2.440000	8.411096	374.310136	0.248141	-9.612862	431.688663	0.241101
2.450000	8.404555	374.647854	0.248113	-9.586139	431.465374	0.241025
2.460000	8.411446	374.910300	0.248073	-9.559250	431.295269	0.240977
2.470000	8.430759	375.053817	0.248012	-9.533641	431.183583	0.240960
2.480000	8.455087	375.084111	0.247924	-9.510423	431.122491	0.240965
2.490000	8.472041	375.051923	0.247807	-9.495294	431.094871	0.240974
2.500000	8.468093	375.029042	0.247672	-9.500315	431.078105	0.240968
2.510000	8.433879	375.077139	0.247537	-9.539019	431.046877	0.240930
2.520000	8.368973	375.224168	0.247423	-9.616238	430.976167	0.240855
2.530000	8.283660	375.457823	0.247347	-9.718981	430.845744	0.240753
2.540000	8.196161	375.736666	0.247316	-9.815625	430.645352	0.240647
2.550000	8.126079	376.011647	0.247329	-9.866282	430.377907	0.240565
2.560000	8.087104	376.247016	0.247376	-9.840309	430.058731	0.240536
2.570000	8.082703	376.431038	0.247447	-9.731906	429.711702	0.240573
2.580000	8.106707	376.572787	0.247533	-9.564969	429.365523	0.240675
2.590000	8.147822	376.689041	0.247625	-9.383866	429.052512	0.240824
2.600000	8.195085	376.790920	0.247715	-9.234532	428.808825	0.240990
2.610000	8.241533	376.879328	0.247799	-9.145583	428.672104	0.241145
2.620000	8.285053	376.951280	0.247876	-9.118745	428.673293	0.241268
2.630000	8.327059	377.010475	0.247948	-9.132325	428.823821	0.241348
2.640000	8.370224	377.071830	0.248025	-9.154491	429.104010	0.241394
2.650000	8.416327	377.154244	0.248115	-9.158941	429.459600	0.241420
2.660000	8.464934	377.265654	0.248224	-9.135760	429.809994	0.241451
2.670000	8.513271	377.391882	0.248353	-9.093668	430.066769	0.241507
2.680000	8.557240	377.499864	0.248494	-9.053902	430.157227	0.241601
2.690000	8.593161	377.556177	0.248642	-9.039027	430.046229	0.241735
2.700000	8.619562	377.549924	0.248789	-9.061395	429.749422	0.241898
2.710000	8.638257	377.504130	0.248932	-9.115945	429.331938	0.242073
2.720000	8.654108	377.466484	0.249068	-9.180595	428.890093	0.242244
2.730000	8.673339	377.484310	0.249191	-9.224601	428.520187	0.242400
2.740000	8.701033	377.579491	0.249293	-9.221607	428.285792	0.242540
2.750000	8.738929	377.738437	0.249367	-9.161447	428.197844	0.242671
2.760000	8.784641	377.921290	0.249418	-9.054920	428.217088	0.242806
2.770000	8.832780	378.082291	0.249463	-8.929055	428.277624	0.242956
2.780000	8.877498	378.188567	0.249529	-8.815168	428.319581	0.243132
2.790000	8.915214	378.229076	0.249642	-8.735618	428.314503	0.243333
2.800000	8.946016	378.213537	0.249812	-8.695870	428.271648	0.243553
2.810000	8.972909	378.166111	0.250031	-8.685562	428.224559	0.243777
2.820000	8.999197	378.118054	0.250272	-8.687276	428.208511	0.243986
2.830000	9.025369	378.100434	0.250497	-8.687316	428.243483	0.244157
2.840000	9.047283	378.135855	0.250676	-8.682055	428.331545	0.244275
2.850000	9.056948	378.229035	0.250790	-8.676791	428.466175	0.244331
2.860000	9.045986	378.359054	0.250837	-8.679341	428.642991	0.244332
2.870000	9.010368	378.478702	0.250834	-8.693754	428.862273	0.244296
2.880000	8.954270	378.525500	0.250809	-8.718368	429.121636	0.244252
2.890000	8.891047	378.443735	0.250791	-8.748310	429.405349	0.244228
2.900000	8.840371	378.209482	0.250805	-8.779140	429.679269	0.244245
