time (s)	dominant Fap (N)	dominant Fvert (N)	dominant CPap (m)	non-dominant Fap (N)	non-dominant Fvert (N)	non-dominant CPap (m)
0.000000	2.028082	328.796806	0.237409	-3.096944	378.105105	0.219500
0.010000	2.285896	328.270245	0.237512	-3.106409	378.815721	0.219536
0.020000	2.516368	327.761316	0.237590	-3.091738	379.515397	0.219549
0.030000	2.698648	327.272638	0.237629	-3.044013	380.194600	0.219519
0.040000	2.823094	326.787668	0.237627	-2.975354	380.847825	0.219440
0.050000	2.892697	326.276716	0.237598	-2.913541	381.475809	0.219318
0.060000	2.920889	325.713118	0.237560	-2.888601	382.086575	0.219171
0.070000	2.926214	325.092661	0.237531	-2.919038	382.692251	0.219024
0.080000	2.925341	324.446013	0.237520	-3.004588	383.299122	0.218900
0.090000	2.926939	323.834888	0.237523	-3.128021	383.893504	0.218810
0.100000	2.929344	323.329458	0.237526	-3.263740	384.433010	0.218753
0.110000	2.923725	322.975450	0.237508	-3.388455	384.854174	0.218711
0.120000	2.901522	322.768041	0.237450	-3.489138	385.098560	0.218662
0.130000	2.862152	322.649013	0.237336	-3.565142	385.145243	0.218589
0.140000	2.816358	322.531913	0.237164	-3.623917	385.029434	0.218490
0.150000	2.782839	322.343833	0.236947	-3.672870	384.833378	0.218376
0.160000	2.779577	322.062420	0.236708	-3.712471	384.653026	0.218267
0.170000	2.814263	321.729511	0.236476	-3.735643	384.559490	0.218179
0.180000	2.878787	321.435856	0.236270	-3.734788	384.576523	0.218120
0.190000	2.950757	321.285947	0.236101	-3.712065	384.683224	0.218088
0.200000	3.001502	321.359429	0.235968	-3.685020	384.834471	0.218072
0.210000	3.006904	321.683723	0.235861	-3.681670	384.982640	0.218059
0.220000	2.956143	322.225475	0.235770	-3.726018	385.088192	0.218039
0.230000	2.854711	322.901314	0.235684	-3.822085	385.118941	0.217998
0.240000	2.721043	323.603110	0.235593	-3.946659	385.047319	0.217927
0.250000	2.579165	324.228929	0.235484	-4.056548	384.854205	0.217818
0.260000	2.451065	324.708532	0.235351	-4.107876	384.538554	0.217673
0.270000	2.351702	325.014303	0.235194	-4.077961	384.123545	0.217506
0.280000	2.287459	325.155851	0.235027	-3.978443	383.650742	0.217344
0.290000	2.257116	325.165427	0.234878	-3.852498	383.163542	0.217217
0.300000	2.253989	325.085006	0.234777	-3.756973	382.690800	0.217149
0.310000	2.268418	324.961330	0.234749	-3.737808	382.241915	0.217146
0.320000	2.290284	324.846623	0.234804	-3.810225	381.815534	0.217203
0.330000	2.311156	324.797532	0.234929	-3.952327	381.413553	0.217300
0.340000	2.325390	324.867328	0.235094	-4.114065	381.048956	0.217418
0.350000	2.329781	325.093246	0.235264	-4.236787	380.741741	0.217542
0.360000	2.322317	325.485680	0.235411	-4.274931	380.506399	0.217661
0.370000	2.301353	326.024914	0.235523	-4.211547	380.340263	0.217768
0.380000	2.266361	326.665879	0.235605	-4.062284	380.220976	0.217859
0.390000	2.220161	327.347124	0.235672	-3.866971	380.114675	0.217934
0.400000	2.171043	328.000333	0.235738	-3.672808	379.988919	0.217999
0.410000	2.132499	328.559999	0.235812	-3.516612	379.821478	0.218068
0.420000	2.119177	328.975192	0.235891	-3.413844	379.600044	0.218153
0.430000	2.140063	329.223509	0.235968	-3.358445	379.315867	0.218265
0.440000	2.192335	329.322385	0.236036	-3.331793	378.959425	0.218409
0.450000	2.260051	329.329629	0.236097	-3.314443	378.524166	0.218581
0.460000	2.319699	329.327655	0.236160	-3.293759	378.016771	0.218775
0.470000	2.350616	329.394343	0.236241	-3.264351	377.465830	0.218982
0.480000	2.344893	329.572486	0.236351	-3.223738	376.920883	0.219192
0.490000	2.311155	329.852910	0.236497	-3.168618	376.440204	0.219392
0.500000	2.269840	330.180725	0.236666	-3.095559	376.073340	0.219566
0.510000	2.242469	330.482699	0.236835	-3.005314	375.847370	0.219705
0.520000	2.240887	330.702637	0.236978	-2.906588	375.762424	0.219803
0.530000	2.262504	330.826901	0.237075	-2.815522	375.795535	0.219868
0.540000	2.294106	330.886698	0.237125	-2.750491	375.907862	0.219915
0.550000	2.321977	330.935906	0.237147	-2.724926	376.051666	0.219961
0.560000	2.342459	331.017163	0.237172	-2.741569	376.177513	0.220020
0.570000	2.366738	331.136285	0.237231	-2.790272	376.244043	0.220099
0.580000	2.416699	331.260514	0.237342	-2.849870	376.229659	0.220197
0.590000	2.513442	331.341571	0.237508	-2.893751	376.140853	0.220314
0.600000	2.664089	331.349133	0.237712	-2.898139	376.010786	0.220445
0.610000	2.853760	331.294045	0.237934	-2.850950	375.886137	0.220584
0.620000	3.047303	331.227192	0.238150	-2.757638	375.806908	0.220724
0.630000	3.200822	331.214986	0.238342	-2.640387	375.787924	0.220856
0.640000	3.278411	331.306229	0.238501	-2.529560	375.810289	0.220969
0.650000	3.266895	331.509273	0.238627	-2.450551	375.826978	0.221055
0.660000	3.181853	331.791089	0.238725	-2.412469	375.781341	0.221112
0.670000	3.061676	332.096609	0.238806	-2.404871	375.631868	0.221144
0.680000	2.951762	332.376169	0.238879	-2.404794	375.372848	0.221165
0.690000	2.885910	332.606618	0.238950	-2.390637	375.040838	0.221189
0.700000	2.873778	332.797258	0.239017	-2.355321	374.702447	0.221233
0.710000	2.900301	332.980391	0.239073	-2.311157	374.427785	0.221301
0.720000	2.936525	333.192631	0.239112	-2.283352	374.261277	0.221391
0.730000	2.955169	333.455258	0.239135	-2.295553	374.203285	0.221490
0.740000	2.942435	333.760926	0.239151	-2.355396	374.210869	0.221582
0.750000	2.900841	334.071893	0.239174	-2.447963	374.216687	0.221658
0.760000	2.843669	334.331937	0.239216	-2.540622	374.156480	0.221716
0.770000	2.785926	334.489237	0.239280	-2.596884	373.992404	0.221764
0.780000	2.737239	334.521420	0.239359	-2.592732	373.723286	0.221815
0.790000	2.699549	334.450171	0.239448	-2.528019	373.380411	0.221877
0.800000	2.669049	334.335480	0.239545	-2.427754	373.013844	0.221953
0.810000	2.639871	334.249318	0.239658	-2.332313	372.676262	0.222042
0.820000	2.607142	334.240511	0.239799	-2.280355	372.409671	0.222138
0.830000	2.568450	334.309113	0.239974	-2.291774	372.237871	0.222239
0.840000	2.524148	334.404786	0.240176	-2.358607	372.165566	0.222346
0.850000	2.477318	334.451126	0.240388	-2.448469	372.183421	0.222462
0.860000	2.433693	334.383887	0.240584	-2.519042	372.276448	0.222593
0.870000	2.400926	334.183490	0.240749	-2.536431	372.431448	0.222741
0.880000	2.386446	333.885107	0.240878	-2.488246	372.639414	0.222911
0.890000	2.393994	333.561410	0.240977	-2.385480	372.891639	0.223099
0.900000	2.420444	333.287698	0.241064	-2.253568	373.172599	0.223301
0.910000	2.455318	333.108568	0.241155	-2.118434	373.455763	0.223504
0.920000	2.484414	333.023734	0.241265	-1.994904	373.707638	0.223690
0.930000	2.496491	332.998609	0.241402	-1.882546	373.900150	0.223845
0.940000	2.489495	332.990447	0.241568	-1.769822	374.024875	0.223962
0.950000	2.472624	332.972808	0.241759	-1.643729	374.099707	0.224052
0.960000	2.462801	332.944574	0.241967	-1.499843	374.162213	0.224137
0.970000	2.477539	332.921485	0.242179	-1.347414	374.252263	0.224242
0.980000	2.527978	332.919543	0.242380	-1.206391	374.393283	0.224386
0.990000	2.615160	332.943392	0.242558	-1.097594	374.581669	0.224569
1.000000	2.730293	332.987231	0.242703	-1.031662	374.788117	0.224770
1.010000	2.857759	333.045776	0.242808	-1.003739	374.967939	0.224958
1.020000	2.979188	333.125443	0.242871	-0.997445	375.074576	0.225098
1.030000	3.077504	333.245896	0.242893	-0.995706	375.071827	0.225168
1.040000	3.140403	333.429037	0.242877	-0.991584	374.942569	0.225161
1.050000	3.162768	333.681513	0.242825	-0.992496	374.692759	0.225093
1.060000	3.147325	333.981940	0.242742	-1.015586	374.349687	0.224990
1.070000	3.103164	334.282155	0.242629	-1.077258	373.954441	0.224882
1.080000	3.042601	334.524081	0.242489	-1.182793	373.550667	0.224793
1.090000	2.977700	334.664770	0.242328	-1.321508	373.173515	0.224736
1.100000	2.917779	334.697173	0.242155	-1.469737	372.842798	0.224710
1.110000	2.868395	334.656067	0.241984	-1.599956	372.562454	0.224705
1.120000	2.831387	334.606037	0.241831	-1.691562	372.325375	0.224710
1.130000	2.805222	334.617181	0.241711	-1.738273	372.120356	0.224715
1.140000	2.785418	334.739272	0.241631	-1.748864	371.937367	0.224719
1.150000	2.765543	334.984757	0.241592	-1.741101	371.768936	0.224721
1.160000	2.739372	335.326421	0.241585	-1.731973	371.608034	0.224720
1.170000	2.703918	335.709424	0.241596	-1.729135	371.445281	0.224714
1.180000	2.661907	336.072112	0.241618	-1.727868	371.268837	0.224698
1.190000	2.621889	336.367083	0.241645	-1.714871	371.068537	0.224669
1.200000	2.595182	336.574419	0.241674	-1.676529	370.842513	0.224623
1.210000	2.590524	336.702655	0.241703	-1.607114	370.602126	0.224565
1.220000	2.608822	336.778583	0.241722	-1.513067	370.371269	0.224498
1.230000	2.640681	336.832000	0.241720	-1.412023	370.178947	0.224429
1.240000	2.668455	336.883522	0.241682	-1.327859	370.047558	0.224363
1.250000	2.672524	336.941209	0.241603	-1.284034	369.981925	0.224305
1.260000	2.639256	337.006165	0.241492	-1.297247	369.964716	0.224256
1.270000	2.566931	337.081806	0.241368	-1.372752	369.961865	0.224217
1.280000	2.466714	337.179676	0.241253	-1.502328	369.937185	0.224188
1.290000	2.358343	337.317593	0.241165	-1.665501	369.870109	0.224165
1.300000	2.262925	337.511097	0.241107	-1.833980	369.767718	0.224148
1.310000	2.196402	337.763031	0.241066	-1.978511	369.664177	0.224131
1.320000	2.166177	338.056706	0.241022	-2.076581	369.606872	0.224109
1.330000	2.171127	338.355903	0.240957	-2.118790	369.635459	0.224073
1.340000	2.203468	338.611711	0.240866	-2.111402	369.763721	0.224012
1.350000	2.250724	338.773196	0.240757	-2.073484	369.972708	0.223922
1.360000	2.297213	338.797332	0.240647	-2.029420	370.217983	0.223802
1.370000	2.325847	338.654524	0.240546	-2.000381	370.447070	0.223663
1.380000	2.321376	338.329377	0.240458	-1.999183	370.618675	0.223521
1.390000	2.275067	337.820007	0.240376	-2.030578	370.715147	0.223394
1.400000	2.189147	337.140227	0.240297	-2.094701	370.743857	0.223293
1.410000	2.078469	336.325643	0.240224	-2.189010	370.729333	0.223219
1.420000	1.967596	335.439408	0.240169	-2.306057	370.702547	0.223168
1.430000	1.883456	334.570437	0.240146	-2.429453	370.693705	0.223126
1.440000	1.845923	333.819552	0.240159	-2.533659	370.730559	0.223085
1.450000	1.860035	333.275723	0.240199	-2.591263	370.839359	0.223040
1.460000	1.913437	332.990696	0.240243	-2.585378	371.044277	0.222990
1.470000	1.980755	332.961855	0.240268	-2.519807	371.363941	0.222932
1.480000	2.033643	333.130270	0.240257	-2.419959	371.807100	0.222866
1.490000	2.052494	333.395723	0.240211	-2.322966	372.369931	0.222789
1.500000	2.034924	333.644892	0.240144	-2.261867	373.035320	0.222701
1.510000	1.997594	333.783621	0.240076	-2.251738	373.772642	0.222611
1.520000	1.970674	333.761156	0.240027	-2.284244	374.537515	0.222534
1.530000	1.986938	333.576131	0.240012	-2.332844	375.273638	0.222487
1.540000	2.069214	333.262233	0.240038	-2.366180	375.920059	0.222478
1.550000	2.220583	332.861932	0.240099	-2.363592	376.424900	0.222500
1.560000	2.421213	332.402892	0.240184	-2.325380	376.761722	0.222534
1.570000	2.633671	331.889299	0.240272	-2.272550	376.941018	0.222550
1.580000	2.815273	331.311192	0.240345	-2.236096	377.010046	0.222526
1.590000	2.932730	330.664861	0.240385	-2.241767	377.039585	0.222452
1.600000	2.973023	329.971752	0.240383	-2.298775	377.102912	0.222336
1.610000	2.946002	329.284121	0.240335	-2.398076	377.255995	0.222197
1.620000	2.878119	328.672201	0.240246	-2.519794	377.526415	0.222060
1.630000	2.800745	328.197232	0.240124	-2.644319	377.913244	0.221941
1.640000	2.738503	327.883109	0.239980	-2.760608	378.394810	0.221845
1.650000	2.702333	327.701831	0.239825	-2.867902	378.939119	0.221766
1.660000	2.689142	327.581926	0.239665	-2.971160	379.512886	0.221692
1.670000	2.686790	327.437093	0.239506	-3.073810	380.087705	0.221613
1.680000	2.681223	327.201154	0.239352	-3.172773	380.643374	0.221524
1.690000	2.662452	326.852041	0.239202	-3.259382	381.168497	0.221425
1.700000	2.627429	326.414180	0.239056	-3.325906	381.658221	0.221323
1.710000	2.579611	325.940948	0.238913	-3.372947	382.109604	0.221226
1.720000	2.526357	325.488758	0.238772	-3.411484	382.516491	0.221143
1.730000	2.475669	325.096052	0.238638	-3.456881	382.866721	0.221083
1.740000	2.433562	324.774801	0.238520	-3.518404	383.143835	0.221053
1.750000	2.402650	324.514644	0.238432	-3.591629	383.333161	0.221052
1.760000	2.381887	324.295235	0.238387	-3.659036	383.429657	0.221076
1.770000	2.367071	324.100962	0.238389	-3.698146	383.443592	0.221110
1.780000	2.351893	323.932128	0.238433	-3.691867	383.400868	0.221140
1.790000	2.329595	323.807448	0.238505	-3.635637	383.336891	0.221153
1.800000	2.295303	323.756032	0.238589	-3.539205	383.285513	0.221146
1.810000	2.248604	323.802637	0.238672	-3.423721	383.266680	0.221127
1.820000	2.195265	323.954551	0.238748	-3.315647	383.277519	0.221110
1.830000	2.146709	324.197701	0.238818	-3.238789	383.291091	0.221110
1.840000	2.116541	324.503575	0.238886	-3.206383	383.264434	0.221134
1.850000	2.114836	324.841941	0.238962	-3.216251	383.153541	0.221181
1.860000	2.142525	325.192153	0.239046	-3.251966	382.929462	0.221243
1.870000	2.188880	325.548403	0.239138	-3.290575	382.588765	0.221311
1.880000	2.233989	325.918332	0.239230	-3.313730	382.153750	0.221384
1.890000	2.255636	326.316668	0.239312	-3.316544	381.662220	0.221465
1.900000	2.237576	326.756190	0.239379	-3.309159	381.151460	0.221559
1.910000	2.175416	327.238907	0.239436	-3.309781	380.644161	0.221669
1.920000	2.077743	327.751102	0.239491	-3.332626	380.143355	0.221789
1.930000	1.962624	328.265393	0.239555	-3.377075	379.638488	0.221910
1.940000	1.851487	328.749913	0.239633	-3.423946	379.118230	0.222023
1.950000	1.762896	329.180684	0.239724	-3.441373	378.581721	0.222126
1.960000	1.708049	329.551166	0.239816	-3.398044	378.041546	0.222227
1.970000	1.688921	329.874620	0.239894	-3.277758	377.517343	0.222336
1.980000	1.699175	330.178744	0.239950	-3.088370	377.024671	0.222462
1.990000	1.727301	330.495247	0.239986	-2.860794	376.565940	0.222608
2.000000	1.760793	330.848362	0.240017	-2.638376	376.128560	0.222767
2.010000	1.789819	331.246364	0.240063	-2.461146	375.691306	0.222929
2.020000	1.809104	331.679506	0.240140	-2.351411	375.235517	0.223083
2.030000	1.817772	332.125731	0.240252	-2.306372	374.755084	0.223225
2.040000	1.817935	332.561966	0.240394	-2.300612	374.259828	0.223355
2.050000	1.813221	332.975661	0.240552	-2.297431	373.770727	0.223479
2.060000	1.807864	333.371076	0.240711	-2.264275	373.310363	0.223600
2.070000	1.806062	333.767737	0.240861	-2.185573	372.894268	0.223722
2.080000	1.811010	334.192088	0.240995	-2.067385	372.527014	0.223846
2.090000	1.823651	334.665317	0.241109	-1.932146	372.202831	0.223972
2.100000	1.842070	335.190842	0.241204	-1.806676	371.908203	0.224100
2.110000	1.862489	335.745661	0.241280	-1.709716	371.624864	0.224232
2.120000	1.881776	336.280479	0.241344	-1.644952	371.333858	0.224364
2.130000	1.899900	336.732114	0.241402	-1.602086	371.021684	0.224494
2.140000	1.920504	337.046359	0.241465	-1.564225	370.687231	0.224616
2.150000	1.949004	337.202208	0.241546	-1.517001	370.345805	0.224730
2.160000	1.989509	337.224334	0.241656	-1.455042	370.026652	0.224836
2.170000	2.042618	337.174612	0.241799	-1.383684	369.763578	0.224941
2.180000	2.105212	337.124909	0.241975	-1.316450	369.582388	0.225048
2.190000	2.171577	337.125701	0.242174	-1.270052	369.491071	0.225156
2.200000	2.234445	337.188903	0.242380	-1.258555	369.477498	0.225256
2.210000	2.285306	337.294464	0.242575	-1.288023	369.515562	0.225332
2.220000	2.314836	337.414169	0.242740	-1.353206	369.576316	0.225371
2.230000	2.314832	337.534552	0.242860	-1.438017	369.638241	0.225369
2.240000	2.281929	337.662494	0.242927	-1.520630	369.691622	0.225334
2.250000	2.221423	337.810488	0.242945	-1.581715	369.735882	0.225284
2.260000	2.148369	337.973790	0.242927	-1.611980	369.772956	0.225236
2.270000	2.083966	338.117901	0.242891	-1.614902	369.801620	0.225204
2.280000	2.047876	338.188190	0.242858	-1.603091	369.815837	0.225191
2.290000	2.049922	338.138559	0.242839	-1.590576	369.806732	0.225196
2.300000	2.085569	337.962784	0.242838	-1.585591	369.765672	0.225212
2.310000	2.137802	337.709241	0.242849	-1.587647	369.686378	0.225239
2.320000	2.184509	337.468877	0.242861	-1.589720	369.565658	0.225278
2.330000	2.207489	337.341506	0.242863	-1.583556	369.403271	0.225333
2.340000	2.198665	337.397224	0.242846	-1.564883	369.201173	0.225408
2.350000	2.161091	337.651544	0.242810	-1.535958	368.962179	0.225500
2.360000	2.105365	338.064815	0.242756	-1.504590	368.688463	0.225602
2.370000	2.043907	338.563932	0.242691	-1.480667	368.380974	0.225699
2.380000	1.985739	339.074223	0.242620	-1.472304	368.040773	0.225772
2.390000	1.933413	339.546324	0.242548	-1.483552	367.672305	0.225807
2.400000	1.882830	339.967138	0.242479	-1.514290	367.287315	0.225798
2.410000	1.826130	340.352239	0.242418	-1.561306	366.907268	0.225747
2.420000	1.757070	340.725189	0.242367	-1.618981	366.562358	0.225667
2.430000	1.676893	341.094332	0.242327	-1.678923	366.286488	0.225576
2.440000	1.597440	341.438567	0.242299	-1.729682	366.109471	0.225491
2.450000	1.538632	341.709823	0.242281	-1.758349	366.048881	0.225429
2.460000	1.520127	341.852094	0.242266	-1.754639	366.103889	0.225404
2.470000	1.550685	341.827835	0.242248	-1.715762	366.252443	0.225419
2.480000	1.621109	341.637555	0.242222	-1.649293	366.452589	0.225474
2.490000	1.705464	341.321360	0.242188	-1.572031	366.648817	0.225557
2.500000	1.771034	340.941274	0.242155	-1.504991	366.783761	0.225651
2.510000	1.792409	340.554437	0.242137	-1.466410	366.813565	0.225737
2.520000	1.762535	340.192779	0.242149	-1.465421	366.722288	0.225799
2.530000	1.695073	339.860682	0.242200	-1.498842	366.529524	0.225830
2.540000	1.617125	339.550660	0.242288	-1.552441	366.287436	0.225832
2.550000	1.556387	339.265391	0.242400	-1.606308	366.067587	0.225820
2.560000	1.529188	339.030206	0.242517	-1.642240	365.941790	0.225810
2.570000	1.534695	338.886513	0.242622	-1.650322	365.962746	0.225819
2.580000	1.557141	338.869538	0.242701	-1.632448	366.149660	0.225857
2.590000	1.574231	338.984581	0.242752	-1.601712	366.482588	0.225927
2.600000	1.567655	339.197286	0.242782	-1.577752	366.907466	0.226022
2.610000	1.531294	339.444330	0.242809	-1.579262	367.351281	0.226127
2.620000	1.473920	339.657828	0.242852	-1.616149	367.743449	0.226225
2.630000	1.415551	339.788690	0.242932	-1.684574	368.036125	0.226304
2.640000	1.379227	339.816359	0.243058	-1.767399	368.215220	0.226358
2.650000	1.381955	339.742662	0.243228	-1.839968	368.297341	0.226391
2.660000	1.428766	339.578053	0.243428	-1.878162	368.314747	0.226417
2.670000	1.512050	339.332163	0.243637	-1.864650	368.297134	0.226452
2.680000	1.615508	339.015399	0.243837	-1.791327	368.260922	0.226510
2.690000	1.720003	338.649115	0.244014	-1.659187	368.211653	0.226599
2.700000	1.808621	338.275230	0.244161	-1.478216	368.155868	0.226712
2.710000	1.869888	337.956066	0.244275	-1.268018	368.111665	0.226838
2.720000	1.899613	337.760605	0.244358	-1.057049	368.107896	0.226960
2.730000	1.901835	337.740759	0.244412	-0.877842	368.170762	0.227066
2.740000	1.888313	337.907059	0.244444	-0.758473	368.307010	0.227152
2.750000	1.875367	338.215304	0.244466	-0.713898	368.496486	0.227218
2.760000	1.877939	338.572958	0.244490	-0.741607	368.700337	0.227273
2.770000	1.902945	338.866305	0.244526	-0.823427	368.879645	0.227326
2.780000	1.945610	338.999314	0.244577	-0.931773	369.011864	0.227384
2.790000	1.991798	338.927816	0.244639	-1.036931	369.094980	0.227453
2.800000	2.026184	338.673106	0.244702	-1.112812	369.139530	0.227530
2.810000	2.042128	338.308378	0.244762	-1.140676	369.157825	0.227610
2.820000	2.047172	337.924956	0.244817	-1.111736	369.160448	0.227687
2.830000	2.059949	337.595170	0.244871	-1.029408	369.161925	0.227757
2.840000	2.099475	337.349194	0.244927	-0.910544	369.187816	0.227817
2.850000	2.172915	337.174215	0.244986	-0.783524	369.273012	0.227871
2.860000	2.269389	337.032027	0.245040	-0.681306	369.448474	0.227918
2.870000	2.363793	336.882777	0.245081	-0.630252	369.724580	0.227956
2.880000	2.428402	336.702306	0.245103	-0.639342	370.084035	0.227974
2.890000	2.445456	336.486751	0.245102	-0.696130	370.490834	0.227964
2.900000	2.414045	336.245916	0.245080	-0.773047	370.909504	0.227919
2.910000	2.348882	335.991612	0.245044	-0.841636	371.321183	0.227840
