time (s)	dominant Fap (N)	dominant Fvert (N)	dominant CPap (m)	non-dominant Fap (N)	non-dominant Fvert (N)	non-dominant CPap (m)
0.000000	-1.216042	307.329458	0.216390	0.556416	237.757220	0.196440
0.010000	-1.304287	307.125243	0.216305	0.797032	237.583492	0.196319
0.020000	-1.372045	307.010736	0.216236	1.005993	237.419206	0.196222
0.030000	-1.407635	307.042127	0.216190	1.158414	237.264970	0.196158
0.040000	-1.412374	307.223033	0.216167	1.242484	237.110826	0.196118
0.050000	-1.398271	307.506764	0.216152	1.262834	236.942836	0.196083
0.060000	-1.380878	307.817232	0.216126	1.239481	236.753771	0.196030
0.070000	-1.371442	308.078663	0.216069	1.201680	236.551063	0.195949
0.080000	-1.372521	308.242029	0.215975	1.178134	236.357345	0.195846
0.090000	-1.378930	308.298619	0.215853	1.187007	236.203186	0.195740
0.100000	-1.382737	308.276723	0.215727	1.229753	236.115170	0.195654
0.110000	-1.378843	308.224403	0.215625	1.291511	236.104271	0.195605
0.120000	-1.367774	308.187317	0.215569	1.348024	236.159564	0.195598
0.130000	-1.354453	308.192580	0.215564	1.376093	236.250598	0.195623
0.140000	-1.344402	308.245742	0.215598	1.362845	236.338152	0.195660
0.150000	-1.340313	308.339781	0.215652	1.309708	236.388995	0.195688
0.160000	-1.341160	308.467675	0.215706	1.229828	236.388002	0.195692
0.170000	-1.343930	308.628535	0.215751	1.141213	236.342187	0.195673
0.180000	-1.346243	308.822559	0.215788	1.059887	236.275052	0.195640
0.190000	-1.347889	309.038533	0.215821	0.996531	236.214057	0.195608
0.200000	-1.350547	309.243763	0.215852	0.957115	236.177020	0.195588
0.210000	-1.356351	309.386404	0.215874	0.945313	236.163801	0.195583
0.220000	-1.366543	309.413424	0.215874	0.963806	236.157491	0.195586
0.230000	-1.380917	309.297145	0.215840	1.013098	236.134749	0.195588
0.240000	-1.397959	309.055593	0.215767	1.088588	236.079902	0.195584
0.250000	-1.415269	308.752969	0.215663	1.178037	235.994869	0.195572
0.260000	-1.430151	308.477255	0.215548	1.261843	235.899234	0.195550
0.270000	-1.440523	308.305856	0.215445	1.317598	235.820703	0.195516
0.280000	-1.446046	308.277246	0.215374	1.328322	235.781733	0.195470
0.290000	-1.448744	308.382105	0.215347	1.291027	235.789586	0.195416
0.300000	-1.452254	308.575283	0.215364	1.220777	235.834162	0.195368
0.310000	-1.459635	308.799004	0.215419	1.146642	235.893418	0.195342
0.320000	-1.470969	309.004598	0.215497	1.100060	235.942968	0.195348
0.330000	-1.482586	309.164385	0.215578	1.100694	235.965537	0.195378
0.340000	-1.488921	309.272466	0.215635	1.147011	235.956672	0.195409
0.350000	-1.486129	309.338135	0.215644	1.216745	235.924756	0.195409
0.360000	-1.475148	309.376905	0.215593	1.277289	235.885618	0.195354
0.370000	-1.461989	309.403204	0.215485	1.300780	235.854313	0.195240
0.380000	-1.454843	309.427130	0.215347	1.276362	235.837895	0.195088
0.390000	-1.459703	309.455554	0.215215	1.213848	235.832403	0.194935
0.400000	-1.477226	309.495065	0.215130	1.137703	235.824987	0.194817
0.410000	-1.502780	309.552249	0.215117	1.075084	235.799462	0.194756
0.420000	-1.529590	309.627929	0.215179	1.044108	235.742373	0.194751
0.430000	-1.552977	309.707105	0.215296	1.047657	235.647414	0.194778
0.440000	-1.572990	309.752469	0.215429	1.074742	235.517868	0.194801
0.450000	-1.593670	309.710864	0.215535	1.107873	235.367797	0.194788
0.460000	-1.619286	309.535466	0.215578	1.132323	235.222196	0.194724
0.470000	-1.649884	309.214736	0.215544	1.142566	235.114902	0.194617
0.480000	-1.679309	308.790929	0.215443	1.142643	235.082303	0.194498
0.490000	-1.697538	308.353925	0.215309	1.140487	235.152137	0.194402
0.500000	-1.696468	308.009938	0.215184	1.139885	235.330047	0.194358
0.510000	-1.675762	307.840037	0.215100	1.135522	235.590282	0.194370
0.520000	-1.644843	307.869598	0.215075	1.114957	235.877779	0.194421
0.530000	-1.619251	308.062617	0.215098	1.066873	236.124415	0.194476
0.540000	-1.613033	308.340296	0.215147	0.990338	236.274069	0.194505
0.550000	-1.631452	308.611561	0.215194	0.898483	236.304521	0.194496
0.560000	-1.668157	308.801007	0.215216	0.813417	236.234721	0.194456
0.570000	-1.708304	308.865775	0.215207	0.755258	236.113910	0.194407
0.580000	-1.735571	308.800784	0.215173	0.732394	235.999166	0.194374
0.590000	-1.739043	308.635600	0.215129	0.739110	235.933335	0.194367
0.600000	-1.716535	308.425367	0.215096	0.761148	235.933214	0.194385
0.610000	-1.673572	308.236215	0.215093	0.784249	235.990945	0.194416
0.620000	-1.619701	308.125891	0.215130	0.799697	236.084759	0.194448
0.630000	-1.564672	308.123645	0.215211	0.804663	236.192055	0.194474
0.640000	-1.515937	308.216729	0.215325	0.799797	236.298634	0.194493
0.650000	-1.477485	308.351111	0.215452	0.787617	236.401121	0.194510
0.660000	-1.449420	308.449424	0.215569	0.772648	236.503219	0.194533
0.670000	-1.428175	308.441171	0.215657	0.761319	236.609037	0.194571
0.680000	-1.407783	308.292920	0.215709	0.759593	236.717508	0.194630
0.690000	-1.382389	308.024298	0.215732	0.769077	236.820781	0.194707
0.700000	-1.349136	307.701391	0.215746	0.784849	236.906893	0.194794
0.710000	-1.309732	307.409943	0.215773	0.797791	236.964693	0.194878
0.720000	-1.269354	307.220801	0.215831	0.800920	236.988411	0.194943
0.730000	-1.233265	307.163688	0.215926	0.795674	236.980398	0.194983
0.740000	-1.203273	307.220851	0.216048	0.793259	236.951740	0.195006
0.750000	-1.176630	307.342052	0.216180	0.808964	236.920596	0.195032
0.760000	-1.148309	307.471992	0.216301	0.852121	236.907901	0.195094
0.770000	-1.115149	307.575721	0.216395	0.917710	236.930716	0.195218
0.780000	-1.078847	307.649540	0.216458	0.985299	236.995040	0.195418
0.790000	-1.045489	307.713430	0.216495	1.026950	237.091154	0.195684
0.800000	-1.021761	307.791481	0.216516	1.020585	237.194500	0.195986
0.810000	-1.010260	307.893049	0.216533	0.962109	237.273453	0.196282
0.820000	-1.006945	308.005626	0.216552	0.869924	237.302245	0.196536
0.830000	-1.002286	308.102370	0.216574	0.779007	237.273976	0.196729
0.840000	-0.985311	308.158178	0.216603	0.726586	237.207036	0.196863
0.850000	-0.948230	308.163838	0.216638	0.735523	237.140232	0.196964
0.860000	-0.889373	308.130177	0.216686	0.803021	237.117147	0.197064
0.870000	-0.813592	308.081053	0.216747	0.900220	237.166090	0.197189
0.880000	-0.730553	308.040718	0.216821	0.983498	237.285019	0.197351
0.890000	-0.652025	308.023333	0.216905	1.012895	237.439221	0.197546
0.900000	-0.589017	308.029492	0.216992	0.969716	237.574047	0.197758
0.910000	-0.549261	308.049326	0.217079	0.865685	237.637939	0.197972
0.920000	-0.535318	308.068200	0.217165	0.739624	237.605439	0.198183
0.930000	-0.543690	308.071067	0.217250	0.642855	237.488952	0.198398
0.940000	-0.565319	308.044348	0.217330	0.619117	237.333045	0.198633
0.950000	-0.587665	307.977108	0.217399	0.687023	237.194179	0.198902
0.960000	-0.598068	307.864035	0.217448	0.832154	237.116855	0.199209
0.970000	-0.587512	307.710732	0.217469	1.012032	237.118795	0.199543
0.980000	-0.553574	307.538313	0.217466	1.171921	237.191426	0.199881
0.990000	-0.501475	307.382095	0.217449	1.264899	237.311872	0.200195
1.000000	-0.442718	307.280958	0.217434	1.268145	237.456292	0.200462
1.010000	-0.391577	307.259826	0.217436	1.189492	237.606036	0.200669
1.020000	-0.360455	307.313997	0.217456	1.062682	237.745668	0.200820
1.030000	-0.355557	307.405552	0.217486	0.934100	237.858684	0.200928
1.040000	-0.374552	307.476309	0.217513	0.846350	237.927821	0.201008
1.050000	-0.407450	307.472122	0.217518	0.824617	237.942020	0.201068
1.060000	-0.440734	307.366361	0.217494	0.870458	237.905596	0.201111
1.070000	-0.463117	307.170828	0.217440	0.964737	237.841875	0.201133
1.080000	-0.470205	306.929430	0.217363	1.077456	237.785989	0.201136
1.090000	-0.465722	306.698699	0.217278	1.179155	237.768760	0.201128
1.100000	-0.458857	306.525015	0.217198	1.248498	237.800728	0.201119
1.110000	-0.459376	306.428842	0.217134	1.273996	237.866900	0.201114
1.120000	-0.473099	306.402059	0.217093	1.251964	237.936627	0.201108
1.130000	-0.499624	306.417465	0.217074	1.184380	237.983155	0.201090
1.140000	-0.532751	306.443527	0.217079	1.078468	238.000754	0.201050
1.150000	-0.562977	306.455804	0.217107	0.946893	238.008767	0.200988
1.160000	-0.581096	306.440276	0.217158	0.806505	238.040085	0.200915
1.170000	-0.581819	306.390189	0.217229	0.675055	238.121312	0.200848
1.180000	-0.566100	306.301813	0.217311	0.567305	238.256886	0.200801
1.190000	-0.540860	306.173430	0.217393	0.492258	238.426882	0.200780
1.200000	-0.515864	306.007698	0.217459	0.452115	238.599720	0.200781
1.210000	-0.499202	305.814592	0.217498	0.442576	238.751855	0.200800
1.220000	-0.494031	305.612354	0.217505	0.454207	238.882390	0.200829
1.230000	-0.498577	305.425700	0.217482	0.475187	239.013837	0.200863
1.240000	-0.509103	305.281579	0.217437	0.495429	239.178650	0.200898
1.250000	-0.523392	305.202657	0.217385	0.510715	239.399250	0.200927
1.260000	-0.541916	305.199015	0.217339	0.524520	239.672214	0.200944
1.270000	-0.565709	305.260322	0.217310	0.545812	239.964239	0.200942
1.280000	-0.592596	305.352636	0.217303	0.583422	240.221379	0.200920
1.290000	-0.614940	305.423605	0.217320	0.639892	240.387686	0.200877
1.300000	-0.621260	305.416450	0.217360	0.708361	240.426455	0.200814
1.310000	-0.601620	305.288307	0.217422	0.774433	240.336691	0.200735
1.320000	-0.554061	305.025750	0.217501	0.822140	240.158342	0.200650
1.330000	-0.488268	304.651298	0.217588	0.840779	239.962674	0.200568
1.340000	-0.423883	304.218632	0.217664	0.829052	239.829441	0.200498
1.350000	-0.383630	303.798481	0.217709	0.794704	239.818960	0.200447
1.360000	-0.384210	303.459693	0.217706	0.750414	239.951019	0.200413
1.370000	-0.429092	303.250842	0.217654	0.708494	240.200252	0.200389
1.380000	-0.506381	303.187344	0.217570	0.676987	240.509568	0.200366
1.390000	-0.592625	303.247851	0.217481	0.658507	240.814280	0.200345
1.400000	-0.660991	303.381257	0.217418	0.651436	241.065072	0.200332
1.410000	-0.690691	303.522427	0.217400	0.652054	241.240162	0.200341
1.420000	-0.674070	303.611633	0.217431	0.656336	241.343897	0.200382
1.430000	-0.618647	303.611216	0.217494	0.661197	241.396058	0.200451
1.440000	-0.543312	303.513943	0.217566	0.665733	241.419516	0.200527
1.450000	-0.470328	303.340522	0.217627	0.672518	241.432330	0.200584
1.460000	-0.416661	303.127893	0.217666	0.687744	241.445882	0.200600
1.470000	-0.388439	302.913600	0.217684	0.718764	241.466812	0.200568
1.480000	-0.380729	302.723325	0.217692	0.769284	241.500039	0.200502
1.490000	-0.382136	302.567057	0.217697	0.834905	241.551864	0.200423
1.500000	-0.381385	302.444357	0.217704	0.902496	241.632934	0.200354
1.510000	-0.372440	302.353308	0.217712	0.954829	241.759283	0.200306
1.520000	-0.355947	302.295212	0.217717	0.978280	241.948321	0.200282
1.530000	-0.337025	302.270542	0.217713	0.969185	242.209092	0.200273
1.540000	-0.321162	302.269243	0.217700	0.935059	242.531557	0.200271
1.550000	-0.310695	302.264119	0.217679	0.890019	242.883158	0.200266
1.560000	-0.303748	302.214940	0.217659	0.847030	243.217982	0.200258
1.570000	-0.296044	302.083639	0.217654	0.811129	243.495514	0.200246
1.580000	-0.284171	301.853091	0.217680	0.777061	243.698474	0.200238
1.590000	-0.267931	301.538937	0.217747	0.732417	243.838753	0.200240
1.600000	-0.250068	301.187208	0.217853	0.664805	243.947756	0.200257
1.610000	-0.233642	300.857727	0.217985	0.569872	244.057327	0.200284
1.620000	-0.219108	300.600540	0.218118	0.456587	244.182903	0.200306
1.630000	-0.203337	300.436564	0.218227	0.347020	244.318455	0.200303
1.640000	-0.181361	300.351828	0.218296	0.269650	244.444998	0.200252
1.650000	-0.149811	300.307757	0.218324	0.247781	244.546164	0.200144
1.660000	-0.110040	300.261428	0.218320	0.287429	244.620619	0.199988
1.670000	-0.069080	300.184709	0.218306	0.370797	244.683882	0.199814
1.680000	-0.037598	300.072463	0.218302	0.460527	244.759289	0.199659
1.690000	-0.025406	299.936918	0.218322	0.515129	244.864613	0.199552
1.700000	-0.036481	299.793392	0.218370	0.509156	245.002884	0.199506
1.710000	-0.066183	299.647219	0.218437	0.447117	245.162419	0.199508
1.720000	-0.102516	299.490228	0.218505	0.362111	245.324831	0.199534
1.730000	-0.131094	299.308659	0.218558	0.298725	245.475093	0.199560
1.740000	-0.141208	299.097035	0.218586	0.289538	245.607306	0.199571
1.750000	-0.129789	298.868551	0.218594	0.338725	245.723468	0.199568
1.760000	-0.101532	298.654308	0.218596	0.421687	245.827594	0.199564
1.770000	-0.065843	298.490116	0.218607	0.499803	245.920639	0.199569
1.780000	-0.032710	298.397358	0.218637	0.540834	246.000571	0.199588
1.790000	-0.009467	298.368937	0.218680	0.533463	246.067575	0.199615
1.800000	0.000655	298.369311	0.218719	0.489252	246.129771	0.199637
1.810000	-0.001656	298.349530	0.218732	0.433064	246.203640	0.199641
1.820000	-0.013044	298.269126	0.218702	0.388822	246.306627	0.199620
1.830000	-0.029099	298.113114	0.218626	0.368607	246.445038	0.199569
1.840000	-0.045708	297.896514	0.218512	0.370011	246.604653	0.199492
1.850000	-0.059756	297.656742	0.218380	0.381687	246.751456	0.199391
1.860000	-0.069213	297.439603	0.218256	0.392722	246.844832	0.199272
1.870000	-0.073011	297.284746	0.218160	0.399695	246.857947	0.199144
1.880000	-0.071149	297.213943	0.218108	0.406929	246.794237	0.199023
1.890000	-0.065161	297.224201	0.218102	0.420100	246.689617	0.198926
1.900000	-0.058552	297.288110	0.218132	0.438223	246.597710	0.198868
1.910000	-0.056574	297.363211	0.218177	0.450748	246.565621	0.198855
1.920000	-0.064828	297.408684	0.218213	0.443178	246.613526	0.198878
1.930000	-0.086895	297.402837	0.218224	0.408164	246.728736	0.198918
1.940000	-0.121920	297.352574	0.218205	0.354290	246.876047	0.198948
1.950000	-0.163533	297.288968	0.218165	0.305462	247.017099	0.198944
1.960000	-0.201170	297.250388	0.218120	0.289760	247.127649	0.198892
1.970000	-0.223869	297.261845	0.218084	0.323794	247.204382	0.198789
1.980000	-0.225229	297.321551	0.218059	0.401822	247.259596	0.198645
1.990000	-0.207192	297.401539	0.218041	0.496134	247.308636	0.198477
2.000000	-0.180314	297.461370	0.218019	0.568440	247.358067	0.198309
2.010000	-0.159720	297.467301	0.217982	0.585944	247.401249	0.198161
2.020000	-0.158324	297.407296	0.217931	0.534089	247.423493	0.198046
2.030000	-0.180709	297.295474	0.217872	0.420940	247.413622	0.197966
2.040000	-0.221058	297.165287	0.217817	0.272987	247.375099	0.197912
2.050000	-0.266423	297.055752	0.217776	0.125681	247.329395	0.197866
2.060000	-0.303576	296.997055	0.217755	0.012723	247.307815	0.197813
2.070000	-0.325592	297.000958	0.217753	-0.042835	247.334545	0.197739
2.080000	-0.334502	297.058664	0.217758	-0.033960	247.410178	0.197640
2.090000	-0.338749	297.145646	0.217758	0.029462	247.506760	0.197515
2.100000	-0.347224	297.230451	0.217738	0.124353	247.579919	0.197365
2.110000	-0.363557	297.283579	0.217688	0.221795	247.593094	0.197191
2.120000	-0.383938	297.283575	0.217610	0.295580	247.540081	0.197001
2.130000	-0.399544	297.219685	0.217517	0.328881	247.451637	0.196806
2.140000	-0.401922	297.092320	0.217425	0.316711	247.380909	0.196622
2.150000	-0.388150	296.912892	0.217354	0.263919	247.375190	0.196462
2.160000	-0.362815	296.703426	0.217311	0.180694	247.449759	0.196325
2.170000	-0.335844	296.495168	0.217295	0.078648	247.578540	0.196192
2.180000	-0.317584	296.324970	0.217298	-0.030518	247.706972	0.196030
2.190000	-0.313982	296.228781	0.217309	-0.134295	247.780149	0.195809
2.200000	-0.324375	296.232736	0.217325	-0.219114	247.770523	0.195519
2.210000	-0.342642	296.344075	0.217348	-0.272638	247.689460	0.195183
2.220000	-0.360602	296.545909	0.217383	-0.288195	247.576399	0.194852
2.230000	-0.371735	296.800062	0.217428	-0.268610	247.472994	0.194581
2.240000	-0.373607	297.059282	0.217470	-0.226643	247.398580	0.194406
2.250000	-0.368396	297.284767	0.217489	-0.181392	247.341562	0.194331
2.260000	-0.361639	297.460824	0.217462	-0.152293	247.270236	0.194331
2.270000	-0.359839	297.599085	0.217382	-0.153282	247.154079	0.194365
2.280000	-0.367766	297.730192	0.217260	-0.188879	246.981052	0.194398
2.290000	-0.386396	297.887703	0.217126	-0.252933	246.760875	0.194410
2.300000	-0.412306	298.092620	0.217014	-0.330298	246.514675	0.194399
2.310000	-0.438888	298.345545	0.216955	-0.401395	246.260214	0.194367
2.320000	-0.458996	298.628455	0.216962	-0.448547	246.003440	0.194322
2.330000	-0.467804	298.913264	0.217025	-0.461495	245.740990	0.194267
2.340000	-0.464307	299.172336	0.217118	-0.439216	245.469878	0.194211
2.350000	-0.450674	299.387154	0.217201	-0.387342	245.196122	0.194164
2.360000	-0.430102	299.553408	0.217238	-0.313561	244.936186	0.194137
2.370000	-0.404964	299.682033	0.217207	-0.224637	244.710964	0.194137
2.380000	-0.376673	299.796158	0.217105	-0.126832	244.536616	0.194168
2.390000	-0.347111	299.924317	0.216954	-0.028213	244.416987	0.194224
2.400000	-0.320039	300.091405	0.216789	0.060242	244.340033	0.194298
2.410000	-0.300833	300.310301	0.216649	0.126533	244.278663	0.194379
2.420000	-0.294328	300.577704	0.216562	0.161757	244.196104	0.194458
2.430000	-0.302191	300.876376	0.216542	0.163963	244.055782	0.194528
2.440000	-0.321753	301.182741	0.216586	0.139526	243.833879	0.194586
2.450000	-0.347213	301.475788	0.216676	0.101331	243.529673	0.194631
2.460000	-0.372409	301.742657	0.216785	0.064600	243.167702	0.194660
2.470000	-0.393340	301.978917	0.216883	0.042081	242.788915	0.194669
2.480000	-0.409063	302.185211	0.216939	0.040324	242.434057	0.194649
2.490000	-0.421008	302.363960	0.216928	0.058132	242.127486	0.194596
2.500000	-0.431764	302.519068	0.216844	0.087452	241.869823	0.194509
2.510000	-0.444190	302.659033	0.216698	0.116313	241.642888	0.194394
2.520000	-0.460749	302.800995	0.216521	0.132997	241.423117	0.194266
2.530000	-0.482470	302.971553	0.216358	0.130181	241.194820	0.194139
2.540000	-0.507608	303.200830	0.216251	0.107382	240.955548	0.194024
2.550000	-0.531187	303.509851	0.216225	0.070371	240.711933	0.193930
2.560000	-0.546664	303.896503	0.216280	0.027733	240.471111	0.193858
2.570000	-0.549496	304.328746	0.216386	-0.013348	240.235160	0.193807
2.580000	-0.540433	304.751770	0.216498	-0.049332	240.002392	0.193783
2.590000	-0.525866	305.108208	0.216574	-0.079308	239.773160	0.193791
2.600000	-0.514449	305.361861	0.216593	-0.101954	239.553972	0.193840
2.610000	-0.512042	305.512353	0.216562	-0.113173	239.355140	0.193931
2.620000	-0.518534	305.593190	0.216511	-0.106410	239.182763	0.194057
2.630000	-0.528634	305.655425	0.216480	-0.075406	239.031335	0.194195
2.640000	-0.535712	305.746344	0.216497	-0.017326	238.883941	0.194317
2.650000	-0.535666	305.893350	0.216567	0.065834	238.721872	0.194398
2.660000	-0.528278	306.098542	0.216678	0.167932	238.537970	0.194425
2.670000	-0.515888	306.343456	0.216800	0.280032	238.344161	0.194408
2.680000	-0.501162	306.599528	0.216903	0.390761	238.166838	0.194370
2.690000	-0.485915	306.839275	0.216966	0.485735	238.031825	0.194348
2.700000	-0.471469	307.044940	0.216978	0.548216	237.947777	0.194373
2.710000	-0.459584	307.213378	0.216944	0.563241	237.897903	0.194460
2.720000	-0.452590	307.356637	0.216879	0.524918	237.844841	0.194603
2.730000	-0.452196	307.497684	0.216803	0.443066	237.746190	0.194771
2.740000	-0.457643	307.661640	0.216739	0.344121	237.573122	0.194925
2.750000	-0.464588	307.865091	0.216707	0.263769	237.323586	0.195034
2.760000	-0.465985	308.107776	0.216723	0.233648	237.024528	0.195091
2.770000	-0.455147	308.370343	0.216787	0.268283	236.722361	0.195116
2.780000	-0.429759	308.619354	0.216888	0.358643	236.465638	0.195144
2.790000	-0.394534	308.818121	0.217002	0.475445	236.286814	0.195207
2.800000	-0.360475	308.940000	0.217102	0.580964	236.190247	0.195313
2.810000	-0.340415	308.979456	0.217168	0.644544	236.151270	0.195451
2.820000	-0.342824	308.955696	0.217192	0.655476	236.126942	0.195587
2.830000	-0.367239	308.905590	0.217186	0.627431	236.074358	0.195689
2.840000	-0.403985	308.867613	0.217167	0.591673	235.968999	0.195736
2.850000	-0.438507	308.864300	0.217150	0.581227	235.815073	0.195726
2.860000	-0.458031	308.892948	0.217139	0.613183	235.643025	0.195673
2.870000	-0.457113	308.930295	0.217130	0.678361	235.495514	0.195599
2.880000	-0.439491	308.948611	0.217113	0.744594	235.408980	0.195531
2.890000	-0.415776	308.933623	0.217082	0.772833	235.399871	0.195486
2.900000	-0.398642	308.893730	0.217038	0.737849	235.460976	0.195475
